[Software Info]
Build,NTA 2.3 build 0033

[Sample Information]
Operator,""
Sample Description,"coffee"
Diluent,"aqua dest."
Concentration,"1:19"
Pre-treatmeant,""
Comments,""

[Results Summary]
Total Frames,2700
Processed Frames,2700
Valid Tracks,5452
Overall Drift (nm/s),627.88
X-Drift (nm/s),373.50
Y-Drift (nm/s),504.71
Calibration (nm/pixel),166

Size Data - Concentration Weighted,
Mode (nm),190.00
Mean (nm),161.77
Standard Deviation (nm),61.68
Size data - Model Fit,
Mean (nm),0.00
Standard Deviation (nm),0.00

User Line 1,37
User Line 2,205
Average # centres/frame,75.47
Average # particles/frame,65.55
Equivalent particle concentration (E8 particles/ml),9.78
Selected average # particles/frame,49.36
Selected equivalent particle concentration (E8 particles/ml),7.37

[Settings],
Background Extract,On
Brightness,0
Gain,1.00
Blur Size,Auto,
Detection Threshold Type,Multi,
Detection Threshold,26
Min Track Length,Auto
Min Expected Size (nm),Auto

[Measurement Conditions]
Camera Type,CCD
Camera Shutter (ms),8.00
Camera Gain,500
Frame rate (fps),30.00
Temperature (°C),24.00
Viscosity (cP),0.909

[Warnings]
Low Completed Tracks,No
High Noise,26 frames
Auto max jump,Successful
Drift off,No
Settings Changed Whilst Processing,No
Vibration detected,Vibration detected >~10% error
Additional Errors,None

[Graph Data]
Particle Size (nm),Concentration (E6 particles / ml),,
0,0.0000,,
1,0.0000,,
2,0.0000,,
3,0.0000,,
4,0.0000,,
5,0.0000,,
6,0.0000,,
7,0.0000,,
8,0.0000,,
9,0.0000,,
10,0.0000,,
11,0.0000,,
12,0.0000,,
13,0.0000,,
14,0.0000,,
15,0.0000,,
16,0.0000,,
17,0.0000,,
18,0.0000,,
19,0.0001,,
20,0.0005,,
21,0.0022,,
22,0.0074,,
23,0.0186,,
24,0.0360,,
25,0.0575,,
26,0.0825,,
27,0.1151,,
28,0.1585,,
29,0.2110,,
30,0.2676,,
31,0.3247,,
32,0.3854,,
33,0.4584,,
34,0.5509,,
35,0.6648,,
36,0.7946,,
37,0.9314,,
38,1.0665,,
39,1.1944,,
40,1.3135,,
41,1.4237,,
42,1.5255,,
43,1.6198,,
44,1.7087,,
45,1.7954,,
46,1.8839,,
47,1.9773,,
48,2.0763,,
49,2.1799,,
50,2.2847,,
51,2.3865,,
52,2.4807,,
53,2.5633,,
54,2.6319,,
55,2.6867,,
56,2.7291,,
57,2.7628,,
58,2.7912,,
59,2.8173,,
60,2.8429,,
61,2.8685,,
62,2.8946,,
63,2.9213,,
64,2.9490,,
65,2.9786,,
66,3.0106,,
67,3.0445,,
68,3.0790,,
69,3.1119,,
70,3.1404,,
71,3.1622,,
72,3.1754,,
73,3.1796,,
74,3.1756,,
75,3.1655,,
76,3.1520,,
77,3.1381,,
78,3.1267,,
79,3.1203,,
80,3.1202,,
81,3.1272,,
82,3.1411,,
83,3.1608,,
84,3.1855,,
85,3.2137,,
86,3.2442,,
87,3.2760,,
88,3.3086,,
89,3.3413,,
90,3.3741,,
91,3.4067,,
92,3.4389,,
93,3.4705,,
94,3.5011,,
95,3.5307,,
96,3.5590,,
97,3.5855,,
98,3.6103,,
99,3.6337,,
100,3.6560,,
101,3.6776,,
102,3.6992,,
103,3.7216,,
104,3.7456,,
105,3.7717,,
106,3.8005,,
107,3.8326,,
108,3.8679,,
109,3.9066,,
110,3.9485,,
111,3.9931,,
112,4.0402,,
113,4.0893,,
114,4.1397,,
115,4.1908,,
116,4.2420,,
117,4.2929,,
118,4.3427,,
119,4.3912,,
120,4.4378,,
121,4.4825,,
122,4.5250,,
123,4.5654,,
124,4.6038,,
125,4.6402,,
126,4.6751,,
127,4.7085,,
128,4.7410,,
129,4.7726,,
130,4.8034,,
131,4.8334,,
132,4.8628,,
133,4.8915,,
134,4.9193,,
135,4.9461,,
136,4.9717,,
137,4.9962,,
138,5.0196,,
139,5.0418,,
140,5.0633,,
141,5.0840,,
142,5.1044,,
143,5.1250,,
144,5.1459,,
145,5.1677,,
146,5.1908,,
147,5.2154,,
148,5.2417,,
149,5.2699,,
150,5.3001,,
151,5.3322,,
152,5.3661,,
153,5.4015,,
154,5.4383,,
155,5.4761,,
156,5.5145,,
157,5.5534,,
158,5.5922,,
159,5.6309,,
160,5.6693,,
161,5.7071,,
162,5.7443,,
163,5.7807,,
164,5.8164,,
165,5.8517,,
166,5.8864,,
167,5.9208,,
168,5.9550,,
169,5.9890,,
170,6.0231,,
171,6.0574,,
172,6.0918,,
173,6.1263,,
174,6.1610,,
175,6.1957,,
176,6.2304,,
177,6.2647,,
178,6.2984,,
179,6.3314,,
180,6.3633,,
181,6.3937,,
182,6.4224,,
183,6.4489,,
184,6.4729,,
185,6.4943,,
186,6.5123,,
187,6.5270,,
188,6.5378,,
189,6.5446,,
190,6.5472,,
191,6.5451,,
192,6.5383,,
193,6.5266,,
194,6.5099,,
195,6.4882,,
196,6.4613,,
197,6.4292,,
198,6.3921,,
199,6.3500,,
200,6.3030,,
201,6.2512,,
202,6.1948,,
203,6.1340,,
204,6.0691,,
205,6.0003,,
206,5.9276,,
207,5.8516,,
208,5.7723,,
209,5.6901,,
210,5.6051,,
211,5.5175,,
212,5.4277,,
213,5.3358,,
214,5.2421,,
215,5.1465,,
216,5.0494,,
217,4.9509,,
218,4.8512,,
219,4.7504,,
220,4.6487,,
221,4.5461,,
222,4.4428,,
223,4.3392,,
224,4.2351,,
225,4.1308,,
226,4.0264,,
227,3.9221,,
228,3.8182,,
229,3.7146,,
230,3.6114,,
231,3.5090,,
232,3.4075,,
233,3.3070,,
234,3.2075,,
235,3.1093,,
236,3.0125,,
237,2.9173,,
238,2.8236,,
239,2.7316,,
240,2.6414,,
241,2.5531,,
242,2.4667,,
243,2.3823,,
244,2.3000,,
245,2.2197,,
246,2.1415,,
247,2.0655,,
248,1.9917,,
249,1.9200,,
250,1.8505,,
251,1.7831,,
252,1.7180,,
253,1.6550,,
254,1.5941,,
255,1.5353,,
256,1.4787,,
257,1.4241,,
258,1.3715,,
259,1.3210,,
260,1.2724,,
261,1.2258,,
262,1.1811,,
263,1.1383,,
264,1.0973,,
265,1.0580,,
266,1.0206,,
267,0.9848,,
268,0.9506,,
269,0.9181,,
270,0.8871,,
271,0.8576,,
272,0.8294,,
273,0.8027,,
274,0.7772,,
275,0.7531,,
276,0.7301,,
277,0.7082,,
278,0.6875,,
279,0.6678,,
280,0.6491,,
281,0.6313,,
282,0.6144,,
283,0.5982,,
284,0.5828,,
285,0.5681,,
286,0.5541,,
287,0.5407,,
288,0.5278,,
289,0.5154,,
290,0.5036,,
291,0.4921,,
292,0.4811,,
293,0.4704,,
294,0.4601,,
295,0.4501,,
296,0.4403,,
297,0.4308,,
298,0.4215,,
299,0.4124,,
300,0.4034,,
301,0.3947,,
302,0.3861,,
303,0.3776,,
304,0.3693,,
305,0.3611,,
306,0.3530,,
307,0.3449,,
308,0.3370,,
309,0.3292,,
310,0.3214,,
311,0.3138,,
312,0.3062,,
313,0.2987,,
314,0.2913,,
315,0.2839,,
316,0.2766,,
317,0.2695,,
318,0.2624,,
319,0.2554,,
320,0.2484,,
321,0.2416,,
322,0.2348,,
323,0.2282,,
324,0.2216,,
325,0.2151,,
326,0.2088,,
327,0.2025,,
328,0.1964,,
329,0.1904,,
330,0.1844,,
331,0.1786,,
332,0.1730,,
333,0.1674,,
334,0.1620,,
335,0.1567,,
336,0.1516,,
337,0.1465,,
338,0.1416,,
339,0.1369,,
340,0.1323,,
341,0.1278,,
342,0.1234,,
343,0.1192,,
344,0.1152,,
345,0.1112,,
346,0.1074,,
347,0.1038,,
348,0.1002,,
349,0.0968,,
350,0.0936,,
351,0.0904,,
352,0.0874,,
353,0.0845,,
354,0.0817,,
355,0.0790,,
356,0.0765,,
357,0.0740,,
358,0.0717,,
359,0.0694,,
360,0.0672,,
361,0.0652,,
362,0.0632,,
363,0.0613,,
364,0.0595,,
365,0.0577,,
366,0.0560,,
367,0.0544,,
368,0.0529,,
369,0.0514,,
370,0.0500,,
371,0.0486,,
372,0.0473,,
373,0.0460,,
374,0.0448,,
375,0.0436,,
376,0.0425,,
377,0.0414,,
378,0.0403,,
379,0.0393,,
380,0.0383,,
381,0.0373,,
382,0.0363,,
383,0.0354,,
384,0.0345,,
385,0.0337,,
386,0.0328,,
387,0.0320,,
388,0.0312,,
389,0.0305,,
390,0.0297,,
391,0.0290,,
392,0.0283,,
393,0.0276,,
394,0.0269,,
395,0.0262,,
396,0.0256,,
397,0.0250,,
398,0.0244,,
399,0.0238,,
400,0.0232,,
401,0.0227,,
402,0.0221,,
403,0.0216,,
404,0.0211,,
405,0.0206,,
406,0.0201,,
407,0.0196,,
408,0.0192,,
409,0.0188,,
410,0.0184,,
411,0.0180,,
412,0.0176,,
413,0.0172,,
414,0.0169,,
415,0.0165,,
416,0.0162,,
417,0.0159,,
418,0.0156,,
419,0.0153,,
420,0.0150,,
421,0.0148,,
422,0.0145,,
423,0.0143,,
424,0.0141,,
425,0.0139,,
426,0.0137,,
427,0.0135,,
428,0.0133,,
429,0.0131,,
430,0.0130,,
431,0.0128,,
432,0.0127,,
433,0.0125,,
434,0.0124,,
435,0.0123,,
436,0.0121,,
437,0.0120,,
438,0.0119,,
439,0.0118,,
440,0.0117,,
441,0.0116,,
442,0.0115,,
443,0.0114,,
444,0.0113,,
445,0.0112,,
446,0.0111,,
447,0.0111,,
448,0.0110,,
449,0.0109,,
450,0.0108,,
451,0.0107,,
452,0.0106,,
453,0.0105,,
454,0.0104,,
455,0.0103,,
456,0.0102,,
457,0.0101,,
458,0.0100,,
459,0.0099,,
460,0.0098,,
461,0.0097,,
462,0.0096,,
463,0.0095,,
464,0.0094,,
465,0.0092,,
466,0.0091,,
467,0.0090,,
468,0.0089,,
469,0.0087,,
470,0.0086,,
471,0.0085,,
472,0.0084,,
473,0.0082,,
474,0.0081,,
475,0.0080,,
476,0.0078,,
477,0.0077,,
478,0.0075,,
479,0.0074,,
480,0.0073,,
481,0.0071,,
482,0.0070,,
483,0.0069,,
484,0.0067,,
485,0.0066,,
486,0.0064,,
487,0.0063,,
488,0.0062,,
489,0.0061,,
490,0.0059,,
491,0.0058,,
492,0.0057,,
493,0.0055,,
494,0.0054,,
495,0.0053,,
496,0.0052,,
497,0.0051,,
498,0.0050,,
499,0.0048,,
500,0.0047,,
501,0.0046,,
502,0.0045,,
503,0.0044,,
504,0.0043,,
505,0.0042,,
506,0.0041,,
507,0.0040,,
508,0.0040,,
509,0.0039,,
510,0.0038,,
511,0.0037,,
512,0.0036,,
513,0.0035,,
514,0.0035,,
515,0.0034,,
516,0.0033,,
517,0.0033,,
518,0.0032,,
519,0.0031,,
520,0.0031,,
521,0.0030,,
522,0.0030,,
523,0.0029,,
524,0.0029,,
525,0.0028,,
526,0.0028,,
527,0.0027,,
528,0.0027,,
529,0.0026,,
530,0.0026,,
531,0.0025,,
532,0.0025,,
533,0.0024,,
534,0.0024,,
535,0.0024,,
536,0.0023,,
537,0.0023,,
538,0.0022,,
539,0.0022,,
540,0.0022,,
541,0.0021,,
542,0.0021,,
543,0.0021,,
544,0.0020,,
545,0.0020,,
546,0.0019,,
547,0.0019,,
548,0.0019,,
549,0.0018,,
550,0.0018,,
551,0.0018,,
552,0.0017,,
553,0.0017,,
554,0.0017,,
555,0.0016,,
556,0.0016,,
557,0.0016,,
558,0.0015,,
559,0.0015,,
560,0.0015,,
561,0.0014,,
562,0.0014,,
563,0.0014,,
564,0.0013,,
565,0.0013,,
566,0.0013,,
567,0.0012,,
568,0.0012,,
569,0.0012,,
570,0.0011,,
571,0.0011,,
572,0.0011,,
573,0.0010,,
574,0.0010,,
575,0.0010,,
576,0.0009,,
577,0.0009,,
578,0.0009,,
579,0.0008,,
580,0.0008,,
581,0.0008,,
582,0.0008,,
583,0.0007,,
584,0.0007,,
585,0.0007,,
586,0.0007,,
587,0.0006,,
588,0.0006,,
589,0.0006,,
590,0.0006,,
591,0.0005,,
592,0.0005,,
593,0.0005,,
594,0.0005,,
595,0.0004,,
596,0.0004,,
597,0.0004,,
598,0.0004,,
599,0.0004,,
600,0.0003,,
601,0.0003,,
602,0.0003,,
603,0.0003,,
604,0.0003,,
605,0.0003,,
606,0.0003,,
607,0.0002,,
608,0.0002,,
609,0.0002,,
610,0.0002,,
611,0.0002,,
612,0.0002,,
613,0.0002,,
614,0.0002,,
615,0.0001,,
616,0.0001,,
617,0.0001,,
618,0.0001,,
619,0.0001,,
620,0.0001,,
621,0.0001,,
622,0.0001,,
623,0.0001,,
624,0.0001,,
625,0.0001,,
626,0.0001,,
627,0.0001,,
628,0.0001,,
629,0.0001,,
630,0.0001,,
631,0.0001,,
632,0.0001,,
633,0.0000,,
634,0.0000,,
635,0.0000,,
636,0.0000,,
637,0.0000,,
638,0.0000,,
639,0.0000,,
640,0.0000,,
641,0.0000,,
642,0.0000,,
643,0.0000,,
644,0.0000,,
645,0.0000,,
646,0.0000,,
647,0.0000,,
648,0.0000,,
649,0.0000,,
650,0.0000,,
651,0.0000,,
652,0.0000,,
653,0.0000,,
654,0.0000,,
655,0.0000,,
656,0.0000,,
657,0.0000,,
658,0.0000,,
659,0.0000,,
660,0.0000,,
661,0.0000,,
662,0.0000,,
663,0.0000,,
664,0.0000,,
665,0.0000,,
666,0.0000,,
667,0.0000,,
668,0.0000,,
669,0.0000,,
670,0.0000,,
671,0.0000,,
672,0.0000,,
673,0.0000,,
674,0.0000,,
675,0.0000,,
676,0.0000,,
677,0.0000,,
678,0.0000,,
679,0.0001,,
680,0.0001,,
681,0.0001,,
682,0.0001,,
683,0.0001,,
684,0.0001,,
685,0.0001,,
686,0.0001,,
687,0.0001,,
688,0.0001,,
689,0.0001,,
690,0.0001,,
691,0.0001,,
692,0.0001,,
693,0.0001,,
694,0.0001,,
695,0.0001,,
696,0.0001,,
697,0.0001,,
698,0.0001,,
699,0.0001,,
700,0.0001,,
701,0.0001,,
702,0.0001,,
703,0.0001,,
704,0.0002,,
705,0.0002,,
706,0.0002,,
707,0.0002,,
708,0.0002,,
709,0.0002,,
710,0.0002,,
711,0.0002,,
712,0.0002,,
713,0.0002,,
714,0.0002,,
715,0.0002,,
716,0.0002,,
717,0.0003,,
718,0.0003,,
719,0.0003,,
720,0.0003,,
721,0.0003,,
722,0.0003,,
723,0.0003,,
724,0.0003,,
725,0.0003,,
726,0.0003,,
727,0.0004,,
728,0.0004,,
729,0.0004,,
730,0.0004,,
731,0.0004,,
732,0.0004,,
733,0.0004,,
734,0.0004,,
735,0.0005,,
736,0.0005,,
737,0.0005,,
738,0.0005,,
739,0.0005,,
740,0.0005,,
741,0.0006,,
742,0.0006,,
743,0.0006,,
744,0.0006,,
745,0.0006,,
746,0.0006,,
747,0.0007,,
748,0.0007,,
749,0.0007,,
750,0.0007,,
751,0.0007,,
752,0.0007,,
753,0.0008,,
754,0.0008,,
755,0.0008,,
756,0.0008,,
757,0.0008,,
758,0.0009,,
759,0.0009,,
760,0.0009,,
761,0.0009,,
762,0.0009,,
763,0.0010,,
764,0.0010,,
765,0.0010,,
766,0.0010,,
767,0.0010,,
768,0.0011,,
769,0.0011,,
770,0.0011,,
771,0.0011,,
772,0.0011,,
773,0.0012,,
774,0.0012,,
775,0.0012,,
776,0.0012,,
777,0.0012,,
778,0.0013,,
779,0.0013,,
780,0.0013,,
781,0.0013,,
782,0.0013,,
783,0.0014,,
784,0.0014,,
785,0.0014,,
786,0.0014,,
787,0.0014,,
788,0.0015,,
789,0.0015,,
790,0.0015,,
791,0.0015,,
792,0.0015,,
793,0.0015,,
794,0.0016,,
795,0.0016,,
796,0.0016,,
797,0.0016,,
798,0.0016,,
799,0.0016,,
800,0.0017,,
801,0.0017,,
802,0.0017,,
803,0.0017,,
804,0.0017,,
805,0.0017,,
806,0.0017,,
807,0.0017,,
808,0.0018,,
809,0.0018,,
810,0.0018,,
811,0.0018,,
812,0.0018,,
813,0.0018,,
814,0.0018,,
815,0.0018,,
816,0.0018,,
817,0.0018,,
818,0.0018,,
819,0.0018,,
820,0.0018,,
821,0.0019,,
822,0.0019,,
823,0.0019,,
824,0.0019,,
825,0.0019,,
826,0.0019,,
827,0.0019,,
828,0.0019,,
829,0.0019,,
830,0.0019,,
831,0.0019,,
832,0.0019,,
833,0.0019,,
834,0.0018,,
835,0.0018,,
836,0.0018,,
837,0.0018,,
838,0.0018,,
839,0.0018,,
840,0.0018,,
841,0.0018,,
842,0.0018,,
843,0.0018,,
844,0.0018,,
845,0.0018,,
846,0.0018,,
847,0.0017,,
848,0.0017,,
849,0.0017,,
850,0.0017,,
851,0.0017,,
852,0.0017,,
853,0.0017,,
854,0.0017,,
855,0.0016,,
856,0.0016,,
857,0.0016,,
858,0.0016,,
859,0.0016,,
860,0.0016,,
861,0.0015,,
862,0.0015,,
863,0.0015,,
864,0.0015,,
865,0.0015,,
866,0.0015,,
867,0.0014,,
868,0.0014,,
869,0.0014,,
870,0.0014,,
871,0.0014,,
872,0.0013,,
873,0.0013,,
874,0.0013,,
875,0.0013,,
876,0.0013,,
877,0.0012,,
878,0.0012,,
879,0.0012,,
880,0.0012,,
881,0.0012,,
882,0.0011,,
883,0.0011,,
884,0.0011,,
885,0.0011,,
886,0.0011,,
887,0.0010,,
888,0.0010,,
889,0.0010,,
890,0.0010,,
891,0.0010,,
892,0.0009,,
893,0.0009,,
894,0.0009,,
895,0.0009,,
896,0.0009,,
897,0.0008,,
898,0.0008,,
899,0.0008,,
900,0.0008,,
901,0.0008,,
902,0.0007,,
903,0.0007,,
904,0.0007,,
905,0.0007,,
906,0.0007,,
907,0.0007,,
908,0.0006,,
909,0.0006,,
910,0.0006,,
911,0.0006,,
912,0.0006,,
913,0.0006,,
914,0.0005,,
915,0.0005,,
916,0.0005,,
917,0.0005,,
918,0.0005,,
919,0.0005,,
920,0.0004,,
921,0.0004,,
922,0.0004,,
923,0.0004,,
924,0.0004,,
925,0.0004,,
926,0.0004,,
927,0.0004,,
928,0.0003,,
929,0.0003,,
930,0.0003,,
931,0.0003,,
932,0.0003,,
933,0.0003,,
934,0.0003,,
935,0.0003,,
936,0.0003,,
937,0.0003,,
938,0.0002,,
939,0.0002,,
940,0.0002,,
941,0.0002,,
942,0.0002,,
943,0.0002,,
944,0.0002,,
945,0.0002,,
946,0.0002,,
947,0.0002,,
948,0.0002,,
949,0.0002,,
950,0.0002,,
951,0.0001,,
952,0.0001,,
953,0.0001,,
954,0.0001,,
955,0.0001,,
956,0.0001,,
957,0.0001,,
958,0.0001,,
959,0.0001,,
960,0.0001,,
961,0.0001,,
962,0.0001,,
963,0.0001,,
964,0.0001,,
965,0.0001,,
966,0.0001,,
967,0.0001,,
968,0.0001,,
969,0.0001,,
970,0.0001,,
971,0.0001,,
972,0.0001,,
973,0.0001,,
974,0.0001,,
975,0.0001,,
976,0.0000,,
977,0.0000,,
978,0.0000,,
979,0.0000,,
980,0.0000,,
981,0.0000,,
982,0.0000,,
983,0.0000,,
984,0.0000,,
985,0.0000,,
986,0.0000,,
987,0.0000,,
988,0.0000,,
989,0.0000,,
990,0.0000,,
991,0.0000,,
992,0.0000,,
993,0.0000,,
994,0.0000,,
995,0.0000,,
996,0.0000,,
997,0.0000,,
998,0.0000,,
999,0.0000,,
1000,0.0000,,
1001,0.0000,,
1002,0.0000,,
1003,0.0000,,
1004,0.0000,,
1005,0.0000,,
1006,0.0000,,
1007,0.0000,,
1008,0.0000,,
1009,0.0000,,
1010,0.0000,,
1011,0.0000,,
1012,0.0000,,
1013,0.0000,,
1014,0.0000,,
1015,0.0000,,
1016,0.0000,,
1017,0.0000,,
1018,0.0000,,
1019,0.0000,,
1020,0.0000,,
1021,0.0000,,
1022,0.0000,,
1023,0.0000,,
1024,0.0000,,
1025,0.0000,,
1026,0.0000,,
1027,0.0000,,
1028,0.0000,,
1029,0.0000,,
1030,0.0000,,
1031,0.0000,,
1032,0.0000,,
1033,0.0000,,
1034,0.0000,,
1035,0.0000,,
1036,0.0000,,
1037,0.0000,,
1038,0.0000,,
1039,0.0000,,
1040,0.0000,,
1041,0.0000,,
1042,0.0000,,
1043,0.0000,,
1044,0.0000,,
1045,0.0000,,
1046,0.0000,,
1047,0.0000,,
1048,0.0000,,
1049,0.0000,,
1050,0.0000,,
1051,0.0000,,
1052,0.0000,,
1053,0.0000,,
1054,0.0000,,
1055,0.0000,,
1056,0.0000,,
1057,0.0000,,
1058,0.0000,,
1059,0.0000,,
1060,0.0000,,
1061,0.0000,,
1062,0.0000,,
1063,0.0000,,
1064,0.0000,,
1065,0.0000,,
1066,0.0000,,
1067,0.0000,,
1068,0.0000,,
1069,0.0000,,
1070,0.0000,,
1071,0.0000,,
1072,0.0000,,
1073,0.0000,,
1074,0.0000,,
1075,0.0000,,
1076,0.0000,,
1077,0.0000,,
1078,0.0000,,
1079,0.0000,,
1080,0.0000,,
1081,0.0000,,
1082,0.0000,,
1083,0.0000,,
1084,0.0000,,
1085,0.0000,,
1086,0.0000,,
1087,0.0000,,
1088,0.0000,,
1089,0.0000,,
1090,0.0000,,
1091,0.0000,,
1092,0.0000,,
1093,0.0000,,
1094,0.0000,,
1095,0.0000,,
1096,0.0000,,
1097,0.0000,,
1098,0.0000,,
1099,0.0000,,
1100,0.0000,,
1101,0.0000,,
1102,0.0000,,
1103,0.0000,,
1104,0.0000,,
1105,0.0000,,
1106,0.0000,,
1107,0.0000,,
1108,0.0000,,
1109,0.0000,,
1110,0.0000,,
1111,0.0000,,
1112,0.0000,,
1113,0.0000,,
1114,0.0000,,
1115,0.0000,,
1116,0.0000,,
1117,0.0000,,
1118,0.0000,,
1119,0.0000,,
1120,0.0000,,
1121,0.0000,,
1122,0.0000,,
1123,0.0000,,
1124,0.0000,,
1125,0.0000,,
1126,0.0000,,
1127,0.0000,,
1128,0.0000,,
1129,0.0000,,
1130,0.0000,,
1131,0.0000,,
1132,0.0000,,
1133,0.0000,,
1134,0.0000,,
1135,0.0000,,
1136,0.0000,,
1137,0.0000,,
1138,0.0000,,
1139,0.0000,,
1140,0.0000,,
1141,0.0000,,
1142,0.0000,,
1143,0.0000,,
1144,0.0000,,
1145,0.0000,,
1146,0.0000,,
1147,0.0000,,
1148,0.0000,,
1149,0.0000,,
1150,0.0000,,
1151,0.0000,,
1152,0.0000,,
1153,0.0000,,
1154,0.0000,,
1155,0.0000,,
1156,0.0000,,
1157,0.0000,,
1158,0.0000,,
1159,0.0000,,
1160,0.0000,,
1161,0.0000,,
1162,0.0000,,
1163,0.0000,,
1164,0.0000,,
1165,0.0000,,
1166,0.0000,,
1167,0.0000,,
1168,0.0000,,
1169,0.0000,,
1170,0.0000,,
1171,0.0000,,
1172,0.0000,,
1173,0.0000,,
1174,0.0000,,
1175,0.0000,,
1176,0.0000,,
1177,0.0000,,
1178,0.0000,,
1179,0.0000,,
1180,0.0000,,
1181,0.0000,,
1182,0.0000,,
1183,0.0000,,
1184,0.0000,,
1185,0.0000,,
1186,0.0000,,
1187,0.0000,,
1188,0.0000,,
1189,0.0000,,
1190,0.0000,,
1191,0.0000,,
1192,0.0000,,
1193,0.0000,,
1194,0.0000,,
1195,0.0000,,
1196,0.0000,,
1197,0.0000,,
1198,0.0000,,
1199,0.0000,,
1200,0.0000,,
1201,0.0000,,
1202,0.0000,,
1203,0.0000,,
1204,0.0000,,
1205,0.0000,,
1206,0.0000,,
1207,0.0000,,
1208,0.0000,,
1209,0.0000,,
1210,0.0000,,
1211,0.0000,,
1212,0.0000,,
1213,0.0000,,
1214,0.0000,,
1215,0.0000,,
1216,0.0000,,
1217,0.0000,,
1218,0.0000,,
1219,0.0000,,
1220,0.0000,,
1221,0.0000,,
1222,0.0000,,
1223,0.0000,,
1224,0.0000,,
1225,0.0000,,
1226,0.0000,,
1227,0.0000,,
1228,0.0000,,
1229,0.0000,,
1230,0.0000,,
1231,0.0000,,
1232,0.0000,,
1233,0.0000,,
1234,0.0000,,
1235,0.0000,,
1236,0.0000,,
1237,0.0000,,
1238,0.0000,,
1239,0.0000,,
1240,0.0000,,
1241,0.0000,,
1242,0.0000,,
1243,0.0000,,
1244,0.0000,,
1245,0.0000,,
1246,0.0000,,
1247,0.0000,,
1248,0.0000,,
1249,0.0000,,
1250,0.0000,,
1251,0.0000,,
1252,0.0000,,
1253,0.0000,,
1254,0.0000,,
1255,0.0000,,
1256,0.0000,,
1257,0.0000,,
1258,0.0000,,
1259,0.0000,,
1260,0.0000,,
1261,0.0000,,
1262,0.0000,,
1263,0.0000,,
1264,0.0000,,
1265,0.0000,,
1266,0.0000,,
1267,0.0000,,
1268,0.0000,,
1269,0.0000,,
1270,0.0000,,
1271,0.0000,,
1272,0.0000,,
1273,0.0000,,
1274,0.0000,,
1275,0.0000,,
1276,0.0000,,
1277,0.0000,,
1278,0.0000,,
1279,0.0000,,
1280,0.0000,,
1281,0.0000,,
1282,0.0000,,
1283,0.0000,,
1284,0.0000,,
1285,0.0000,,
1286,0.0000,,
1287,0.0000,,
1288,0.0000,,
1289,0.0000,,
1290,0.0000,,
1291,0.0000,,
1292,0.0000,,
1293,0.0000,,
1294,0.0000,,
1295,0.0000,,
1296,0.0000,,
1297,0.0000,,
1298,0.0000,,
1299,0.0000,,
1300,0.0000,,
1301,0.0000,,
1302,0.0000,,
1303,0.0000,,
1304,0.0000,,
1305,0.0000,,
1306,0.0000,,
1307,0.0000,,
1308,0.0000,,
1309,0.0000,,
1310,0.0000,,
1311,0.0000,,
1312,0.0000,,
1313,0.0000,,
1314,0.0000,,
1315,0.0000,,
1316,0.0000,,
1317,0.0000,,
1318,0.0000,,
1319,0.0000,,
1320,0.0000,,
1321,0.0000,,
1322,0.0000,,
1323,0.0000,,
1324,0.0000,,
1325,0.0000,,
1326,0.0000,,
1327,0.0000,,
1328,0.0000,,
1329,0.0000,,
1330,0.0000,,
1331,0.0000,,
1332,0.0000,,
1333,0.0000,,
1334,0.0000,,
1335,0.0000,,
1336,0.0000,,
1337,0.0000,,
1338,0.0000,,
1339,0.0000,,
1340,0.0000,,
1341,0.0000,,
1342,0.0000,,
1343,0.0000,,
1344,0.0000,,
1345,0.0000,,
1346,0.0000,,
1347,0.0000,,
1348,0.0000,,
1349,0.0000,,
1350,0.0000,,
1351,0.0000,,
1352,0.0000,,
1353,0.0000,,
1354,0.0000,,
1355,0.0000,,
1356,0.0000,,
1357,0.0000,,
1358,0.0000,,
1359,0.0000,,
1360,0.0000,,
1361,0.0000,,
1362,0.0000,,
1363,0.0000,,
1364,0.0000,,
1365,0.0000,,
1366,0.0000,,
1367,0.0000,,
1368,0.0000,,
1369,0.0000,,
1370,0.0000,,
1371,0.0000,,
1372,0.0000,,
1373,0.0000,,
1374,0.0000,,
1375,0.0000,,
1376,0.0000,,
1377,0.0000,,
1378,0.0000,,
1379,0.0000,,
1380,0.0000,,
1381,0.0000,,
1382,0.0000,,
1383,0.0000,,
1384,0.0000,,
1385,0.0000,,
1386,0.0000,,
1387,0.0000,,
1388,0.0000,,
1389,0.0000,,
1390,0.0000,,
1391,0.0000,,
1392,0.0000,,
1393,0.0000,,
1394,0.0000,,
1395,0.0000,,
1396,0.0000,,
1397,0.0000,,
1398,0.0000,,
1399,0.0000,,
1400,0.0000,,
1401,0.0000,,
1402,0.0000,,
1403,0.0000,,
1404,0.0000,,
1405,0.0000,,
1406,0.0000,,
1407,0.0000,,
1408,0.0000,,
1409,0.0000,,
1410,0.0000,,
1411,0.0000,,
1412,0.0000,,
1413,0.0000,,
1414,0.0000,,
1415,0.0000,,
1416,0.0000,,
1417,0.0000,,
1418,0.0000,,
1419,0.0000,,
1420,0.0000,,
1421,0.0000,,
1422,0.0000,,
1423,0.0000,,
1424,0.0000,,
1425,0.0000,,
1426,0.0000,,
1427,0.0000,,
1428,0.0000,,
1429,0.0000,,
1430,0.0000,,
1431,0.0000,,
1432,0.0000,,
1433,0.0000,,
1434,0.0000,,
1435,0.0000,,
1436,0.0000,,
1437,0.0000,,
1438,0.0000,,
1439,0.0000,,
1440,0.0000,,
1441,0.0000,,
1442,0.0000,,
1443,0.0000,,
1444,0.0000,,
1445,0.0000,,
1446,0.0000,,
1447,0.0000,,
1448,0.0000,,
1449,0.0000,,
1450,0.0000,,
1451,0.0000,,
1452,0.0000,,
1453,0.0000,,
1454,0.0000,,
1455,0.0000,,
1456,0.0000,,
1457,0.0000,,
1458,0.0000,,
1459,0.0000,,
1460,0.0000,,
1461,0.0000,,
1462,0.0000,,
1463,0.0000,,
1464,0.0000,,
1465,0.0000,,
1466,0.0000,,
1467,0.0000,,
1468,0.0000,,
1469,0.0000,,
1470,0.0000,,
1471,0.0000,,
1472,0.0000,,
1473,0.0000,,
1474,0.0000,,
1475,0.0000,,
1476,0.0000,,
1477,0.0000,,
1478,0.0000,,
1479,0.0000,,
1480,0.0000,,
1481,0.0000,,
1482,0.0000,,
1483,0.0000,,
1484,0.0000,,
1485,0.0000,,
1486,0.0000,,
1487,0.0000,,
1488,0.0000,,
1489,0.0000,,
1490,0.0000,,
1491,0.0000,,
1492,0.0000,,
1493,0.0000,,
1494,0.0000,,
1495,0.0000,,
1496,0.0000,,
1497,0.0000,,
1498,0.0000,,
1499,0.0000,,
1500,0.0000,,
1501,0.0000,,
1502,0.0000,,
1503,0.0000,,
1504,0.0000,,
1505,0.0000,,
1506,0.0000,,
1507,0.0000,,
1508,0.0000,,
1509,0.0000,,
1510,0.0000,,
1511,0.0000,,
1512,0.0000,,
1513,0.0000,,
1514,0.0000,,
1515,0.0000,,
1516,0.0000,,
1517,0.0000,,
1518,0.0000,,
1519,0.0000,,
1520,0.0000,,
1521,0.0000,,
1522,0.0000,,
1523,0.0000,,
1524,0.0000,,
1525,0.0000,,
1526,0.0000,,
1527,0.0000,,
1528,0.0000,,
1529,0.0000,,
1530,0.0000,,
1531,0.0000,,
1532,0.0000,,
1533,0.0000,,
1534,0.0000,,
1535,0.0000,,
1536,0.0000,,
1537,0.0000,,
1538,0.0000,,
1539,0.0000,,
1540,0.0000,,
1541,0.0000,,
1542,0.0000,,
1543,0.0000,,
1544,0.0000,,
1545,0.0000,,
1546,0.0000,,
1547,0.0000,,
1548,0.0000,,
1549,0.0000,,
1550,0.0000,,
1551,0.0000,,
1552,0.0000,,
1553,0.0000,,
1554,0.0000,,
1555,0.0000,,
1556,0.0000,,
1557,0.0000,,
1558,0.0000,,
1559,0.0000,,
1560,0.0000,,
1561,0.0000,,
1562,0.0000,,
1563,0.0000,,
1564,0.0000,,
1565,0.0000,,
1566,0.0000,,
1567,0.0000,,
1568,0.0000,,
1569,0.0000,,
1570,0.0000,,
1571,0.0000,,
1572,0.0000,,
1573,0.0000,,
1574,0.0000,,
1575,0.0000,,
1576,0.0000,,
1577,0.0000,,
1578,0.0000,,
1579,0.0000,,
1580,0.0000,,
1581,0.0000,,
1582,0.0000,,
1583,0.0000,,
1584,0.0000,,
1585,0.0000,,
1586,0.0000,,
1587,0.0000,,
1588,0.0000,,
1589,0.0000,,
1590,0.0000,,
1591,0.0000,,
1592,0.0000,,
1593,0.0000,,
1594,0.0000,,
1595,0.0000,,
1596,0.0000,,
1597,0.0000,,
1598,0.0000,,
1599,0.0000,,
1600,0.0000,,
1601,0.0000,,
1602,0.0000,,
1603,0.0000,,
1604,0.0000,,
1605,0.0000,,
1606,0.0000,,
1607,0.0000,,
1608,0.0000,,
1609,0.0000,,
1610,0.0000,,
1611,0.0000,,
1612,0.0000,,
1613,0.0000,,
1614,0.0000,,
1615,0.0000,,
1616,0.0000,,
1617,0.0000,,
1618,0.0000,,
1619,0.0000,,
1620,0.0000,,
1621,0.0000,,
1622,0.0000,,
1623,0.0000,,
1624,0.0000,,
1625,0.0000,,
1626,0.0000,,
1627,0.0000,,
1628,0.0000,,
1629,0.0000,,
1630,0.0000,,
1631,0.0000,,
1632,0.0000,,
1633,0.0000,,
1634,0.0000,,
1635,0.0000,,
1636,0.0000,,
1637,0.0000,,
1638,0.0000,,
1639,0.0000,,
1640,0.0000,,
1641,0.0000,,
1642,0.0000,,
1643,0.0000,,
1644,0.0000,,
1645,0.0000,,
1646,0.0000,,
1647,0.0000,,
1648,0.0000,,
1649,0.0000,,
1650,0.0000,,
1651,0.0000,,
1652,0.0000,,
1653,0.0000,,
1654,0.0000,,
1655,0.0000,,
1656,0.0000,,
1657,0.0000,,
1658,0.0000,,
1659,0.0000,,
1660,0.0000,,
1661,0.0000,,
1662,0.0000,,
1663,0.0000,,
1664,0.0000,,
1665,0.0000,,
1666,0.0000,,
1667,0.0000,,
1668,0.0000,,
1669,0.0000,,
1670,0.0000,,
1671,0.0000,,
1672,0.0000,,
1673,0.0000,,
1674,0.0000,,
1675,0.0000,,
1676,0.0000,,
1677,0.0000,,
1678,0.0000,,
1679,0.0000,,
1680,0.0000,,
1681,0.0000,,
1682,0.0000,,
1683,0.0000,,
1684,0.0000,,
1685,0.0000,,
1686,0.0000,,
1687,0.0000,,
1688,0.0000,,
1689,0.0000,,
1690,0.0000,,
1691,0.0000,,
1692,0.0000,,
1693,0.0000,,
1694,0.0000,,
1695,0.0000,,
1696,0.0000,,
1697,0.0000,,
1698,0.0000,,
1699,0.0000,,
1700,0.0000,,
1701,0.0000,,
1702,0.0000,,
1703,0.0000,,
1704,0.0000,,
1705,0.0000,,
1706,0.0000,,
1707,0.0000,,
1708,0.0000,,
1709,0.0000,,
1710,0.0000,,
1711,0.0000,,
1712,0.0000,,
1713,0.0000,,
1714,0.0000,,
1715,0.0000,,
1716,0.0000,,
1717,0.0000,,
1718,0.0000,,
1719,0.0000,,
1720,0.0000,,
1721,0.0000,,
1722,0.0000,,
1723,0.0000,,
1724,0.0000,,
1725,0.0000,,
1726,0.0000,,
1727,0.0000,,
1728,0.0000,,
1729,0.0000,,
1730,0.0000,,
1731,0.0000,,
1732,0.0000,,
1733,0.0000,,
1734,0.0000,,
1735,0.0000,,
1736,0.0000,,
1737,0.0000,,
1738,0.0000,,
1739,0.0000,,
1740,0.0000,,
1741,0.0000,,
1742,0.0000,,
1743,0.0000,,
1744,0.0000,,
1745,0.0000,,
1746,0.0000,,
1747,0.0000,,
1748,0.0000,,
1749,0.0000,,
1750,0.0000,,
1751,0.0000,,
1752,0.0000,,
1753,0.0000,,
1754,0.0000,,
1755,0.0000,,
1756,0.0000,,
1757,0.0000,,
1758,0.0000,,
1759,0.0000,,
1760,0.0000,,
1761,0.0000,,
1762,0.0000,,
1763,0.0000,,
1764,0.0000,,
1765,0.0000,,
1766,0.0000,,
1767,0.0000,,
1768,0.0000,,
1769,0.0000,,
1770,0.0000,,
1771,0.0000,,
1772,0.0000,,
1773,0.0000,,
1774,0.0000,,
1775,0.0000,,
1776,0.0000,,
1777,0.0000,,
1778,0.0000,,
1779,0.0000,,
1780,0.0000,,
1781,0.0000,,
1782,0.0000,,
1783,0.0000,,
1784,0.0000,,
1785,0.0000,,
1786,0.0000,,
1787,0.0000,,
1788,0.0000,,
1789,0.0000,,
1790,0.0000,,
1791,0.0000,,
1792,0.0000,,
1793,0.0000,,
1794,0.0000,,
1795,0.0000,,
1796,0.0000,,
1797,0.0000,,
1798,0.0000,,
1799,0.0000,,
1800,0.0000,,
1801,0.0000,,
1802,0.0000,,
1803,0.0000,,
1804,0.0000,,
1805,0.0000,,
1806,0.0000,,
1807,0.0000,,
1808,0.0000,,
1809,0.0000,,
1810,0.0000,,
1811,0.0000,,
1812,0.0000,,
1813,0.0000,,
1814,0.0000,,
1815,0.0000,,
1816,0.0000,,
1817,0.0000,,
1818,0.0000,,
1819,0.0000,,
1820,0.0000,,
1821,0.0000,,
1822,0.0000,,
1823,0.0000,,
1824,0.0000,,
1825,0.0000,,
1826,0.0000,,
1827,0.0000,,
1828,0.0000,,
1829,0.0000,,
1830,0.0000,,
1831,0.0000,,
1832,0.0000,,
1833,0.0000,,
1834,0.0000,,
1835,0.0000,,
1836,0.0000,,
1837,0.0000,,
1838,0.0000,,
1839,0.0000,,
1840,0.0000,,
1841,0.0000,,
1842,0.0000,,
1843,0.0000,,
1844,0.0000,,
1845,0.0000,,
1846,0.0000,,
1847,0.0000,,
1848,0.0000,,
1849,0.0000,,
1850,0.0000,,
1851,0.0000,,
1852,0.0000,,
1853,0.0000,,
1854,0.0000,,
1855,0.0000,,
1856,0.0000,,
1857,0.0000,,
1858,0.0000,,
1859,0.0000,,
1860,0.0000,,
1861,0.0000,,
1862,0.0000,,
1863,0.0000,,
1864,0.0000,,
1865,0.0000,,
1866,0.0000,,
1867,0.0000,,
1868,0.0000,,
1869,0.0000,,
1870,0.0000,,
1871,0.0000,,
1872,0.0000,,
1873,0.0000,,
1874,0.0000,,
1875,0.0000,,
1876,0.0000,,
1877,0.0000,,
1878,0.0000,,
1879,0.0000,,
1880,0.0000,,
1881,0.0000,,
1882,0.0000,,
1883,0.0000,,
1884,0.0000,,
1885,0.0000,,
1886,0.0000,,
1887,0.0000,,
1888,0.0000,,
1889,0.0000,,
1890,0.0000,,
1891,0.0000,,
1892,0.0000,,
1893,0.0000,,
1894,0.0000,,
1895,0.0000,,
1896,0.0000,,
1897,0.0000,,
1898,0.0000,,
1899,0.0000,,
1900,0.0000,,
1901,0.0000,,
1902,0.0000,,
1903,0.0000,,
1904,0.0000,,
1905,0.0000,,
1906,0.0000,,
1907,0.0000,,
1908,0.0000,,
1909,0.0000,,
1910,0.0000,,
1911,0.0000,,
1912,0.0000,,
1913,0.0000,,
1914,0.0000,,
1915,0.0000,,
1916,0.0000,,
1917,0.0000,,
1918,0.0000,,
1919,0.0000,,
1920,0.0000,,
1921,0.0000,,
1922,0.0000,,
1923,0.0000,,
1924,0.0000,,
1925,0.0000,,
1926,0.0000,,
1927,0.0000,,
1928,0.0000,,
1929,0.0000,,
1930,0.0000,,
1931,0.0000,,
1932,0.0000,,
1933,0.0000,,
1934,0.0000,,
1935,0.0000,,
1936,0.0000,,
1937,0.0000,,
1938,0.0000,,
1939,0.0000,,
1940,0.0000,,
1941,0.0000,,
1942,0.0000,,
1943,0.0000,,
1944,0.0000,,
1945,0.0000,,
1946,0.0000,,
1947,0.0000,,
1948,0.0000,,
1949,0.0000,,
1950,0.0000,,
1951,0.0000,,
1952,0.0000,,
1953,0.0000,,
1954,0.0000,,
1955,0.0000,,
1956,0.0000,,
1957,0.0000,,
1958,0.0000,,
1959,0.0000,,
1960,0.0000,,
1961,0.0000,,
1962,0.0000,,
1963,0.0000,,
1964,0.0000,,
1965,0.0000,,
1966,0.0000,,
1967,0.0000,,
1968,0.0000,,
1969,0.0000,,
1970,0.0000,,
1971,0.0000,,
1972,0.0000,,
1973,0.0000,,
1974,0.0000,,
1975,0.0000,,
1976,0.0000,,
1977,0.0000,,
1978,0.0000,,
1979,0.0000,,
1980,0.0000,,
1981,0.0000,,
1982,0.0000,,
1983,0.0000,,
1984,0.0000,,
1985,0.0000,,
1986,0.0000,,
1987,0.0000,,
1988,0.0000,,
1989,0.0000,,
1990,0.0000,,
1991,0.0000,,
1992,0.0000,,
1993,0.0000,,
1994,0.0000,,
1995,0.0000,,
1996,0.0000,,
1997,0.0000,,
1998,0.0000,,
1999,0.0000,,

[Histogram Data]
Binwidth,4
Particle Size (nm),Concentration (E6 particles / ml),,
2.0,0.0000,,
6.0,0.0000,,
10.0,0.0000,,
14.0,0.0000,,
18.0,0.0000,,
22.0,0.0000,,
26.0,0.2092,,
30.0,0.9577,,
34.0,1.5290,,
38.0,4.1284,,
42.0,5.7218,,
46.0,7.1463,,
50.0,8.4419,,
54.0,11.2747,,
58.0,9.8985,,
62.0,12.9244,,
66.0,9.9871,,
70.0,13.9304,,
74.0,13.6648,,
78.0,11.1862,,
82.0,11.8944,,
86.0,12.8842,,
90.0,13.5924,,
94.0,12.5543,,
98.0,16.9241,,
102.0,13.5280,,
106.0,13.1498,,
110.0,17.1977,,
114.0,14.1557,,
118.0,17.6564,,
122.0,20.4490,,
126.0,15.7170,,
130.0,19.2579,,
134.0,18.0910,,
138.0,23.3059,,
142.0,18.8153,,
146.0,21.5676,,
150.0,16.7632,,
154.0,22.6218,,
158.0,25.1327,,
162.0,19.6522,,
166.0,28.1907,,
170.0,14.7754,,
174.0,28.1344,,
178.0,29.8325,,
182.0,19.0970,,
186.0,26.8227,,
190.0,22.7184,,
194.0,41.2520,,
198.0,27.6918,,
202.0,25.5109,,
206.0,17.6645,,
210.0,27.6435,,
214.0,19.4028,,
218.0,33.1642,,
222.0,9.4559,,
226.0,17.2299,,
230.0,15.2824,,
234.0,10.7677,,
238.0,14.6305,,
242.0,10.0595,,
246.0,7.1302,,
250.0,7.1704,,
254.0,3.7743,,
258.0,6.1806,,
262.0,4.8447,,
266.0,2.8730,,
270.0,2.4223,,
274.0,1.5290,,
278.0,2.2533,,
282.0,3.9594,,
286.0,1.2554,,
290.0,2.0199,,
294.0,1.3037,,
298.0,3.1788,,
302.0,0.8289,,
306.0,0.8128,,
310.0,1.1428,,
314.0,0.2897,,
318.0,3.8468,,
322.0,0.7082,,
326.0,0.2575,,
330.0,0.5150,,
334.0,0.2173,,
338.0,0.1046,,
342.0,0.6197,,
346.0,0.3380,,
350.0,0.1207,,
354.0,0.3702,,
358.0,0.2334,,
362.0,0.1931,,
366.0,0.4346,,
370.0,0.0000,,
374.0,0.0966,,
378.0,0.0000,,
382.0,0.3621,,
386.0,0.0000,,
390.0,0.2656,,
394.0,0.2012,,
398.0,0.0000,,
402.0,0.1207,,
406.0,0.0000,,
410.0,0.0000,,
414.0,0.0000,,
418.0,0.0000,,
422.0,0.0000,,
426.0,0.0000,,
430.0,0.1449,,
434.0,0.0000,,
438.0,0.1288,,
442.0,0.0000,,
446.0,0.1046,,
450.0,0.1449,,
454.0,0.0000,,
458.0,0.0000,,
462.0,0.1207,,
466.0,0.0000,,
470.0,0.0000,,
474.0,0.0000,,
478.0,0.1931,,
482.0,0.0000,,
486.0,0.0000,,
490.0,0.0000,,
494.0,0.0000,,
498.0,0.0000,,
502.0,0.0000,,
506.0,0.0000,,
510.0,0.0000,,
514.0,0.0000,,
518.0,0.0000,,
522.0,0.0000,,
526.0,0.0000,,
530.0,0.0000,,
534.0,0.0000,,
538.0,0.1529,,
542.0,0.0000,,
546.0,0.0000,,
550.0,0.0000,,
554.0,0.0000,,
558.0,0.0000,,
562.0,0.0000,,
566.0,0.0000,,
570.0,0.0000,,
574.0,0.0000,,
578.0,0.0000,,
582.0,0.0000,,
586.0,0.0000,,
590.0,0.0000,,
594.0,0.0000,,
598.0,0.0000,,
602.0,0.0000,,
606.0,0.0000,,
610.0,0.0000,,
614.0,0.0000,,
618.0,0.0000,,
622.0,0.0000,,
626.0,0.0000,,
630.0,0.0000,,
634.0,0.0000,,
638.0,0.0000,,
642.0,0.0000,,
646.0,0.0000,,
650.0,0.0000,,
654.0,0.0000,,
658.0,0.0000,,
662.0,0.0000,,
666.0,0.0000,,
670.0,0.0000,,
674.0,0.0000,,
678.0,0.0000,,
682.0,0.0000,,
686.0,0.0000,,
690.0,0.0000,,
694.0,0.0000,,
698.0,0.0000,,
702.0,0.0000,,
706.0,0.0000,,
710.0,0.0000,,
714.0,0.0000,,
718.0,0.0000,,
722.0,0.0000,,
726.0,0.0000,,
730.0,0.0000,,
734.0,0.0000,,
738.0,0.0000,,
742.0,0.0000,,
746.0,0.0000,,
750.0,0.0000,,
754.0,0.0000,,
758.0,0.0000,,
762.0,0.0000,,
766.0,0.0000,,
770.0,0.0000,,
774.0,0.0000,,
778.0,0.0000,,
782.0,0.0000,,
786.0,0.0000,,
790.0,0.0000,,
794.0,0.0000,,
798.0,0.0000,,
802.0,0.0000,,
806.0,0.0000,,
810.0,0.0000,,
814.0,0.0000,,
818.0,0.0000,,
822.0,0.0000,,
826.0,0.2575,,
830.0,0.0000,,
834.0,0.0000,,
838.0,0.0000,,
842.0,0.0000,,
846.0,0.0000,,
850.0,0.0000,,
854.0,0.0000,,
858.0,0.0000,,
862.0,0.0000,,
866.0,0.0000,,
870.0,0.0000,,
874.0,0.0000,,
878.0,0.0000,,
882.0,0.0000,,
886.0,0.0000,,
890.0,0.0000,,
894.0,0.0000,,
898.0,0.0000,,
902.0,0.0000,,
906.0,0.0000,,
910.0,0.0000,,
914.0,0.0000,,
918.0,0.0000,,
922.0,0.0000,,
926.0,0.0000,,
930.0,0.0000,,
934.0,0.0000,,
938.0,0.0000,,
942.0,0.0000,,
946.0,0.0000,,
950.0,0.0000,,
954.0,0.0000,,
958.0,0.0000,,
962.0,0.0000,,
966.0,0.0000,,
970.0,0.0000,,
974.0,0.0000,,
978.0,0.0000,,
982.0,0.0000,,
986.0,0.0000,,
990.0,0.0000,,
994.0,0.0000,,
998.0,0.0000,,
1002.0,0.0000,,
1006.0,0.0000,,
1010.0,0.0000,,
1014.0,0.0000,,
1018.0,0.0000,,
1022.0,0.0000,,
1026.0,0.0000,,
1030.0,0.0000,,
1034.0,0.0000,,
1038.0,0.0000,,
1042.0,0.0000,,
1046.0,0.0000,,
1050.0,0.0000,,
1054.0,0.0000,,
1058.0,0.0000,,
1062.0,0.0000,,
1066.0,0.0000,,
1070.0,0.0000,,
1074.0,0.0000,,
1078.0,0.0000,,
1082.0,0.0000,,
1086.0,0.0000,,
1090.0,0.0000,,
1094.0,0.0000,,
1098.0,0.0000,,
1102.0,0.0000,,
1106.0,0.0000,,
1110.0,0.0000,,
1114.0,0.0000,,
1118.0,0.0000,,
1122.0,0.0000,,
1126.0,0.0000,,
1130.0,0.0000,,
1134.0,0.0000,,
1138.0,0.0000,,
1142.0,0.0000,,
1146.0,0.0000,,
1150.0,0.0000,,
1154.0,0.0000,,
1158.0,0.0000,,
1162.0,0.0000,,
1166.0,0.0000,,
1170.0,0.0000,,
1174.0,0.0000,,
1178.0,0.0000,,
1182.0,0.0000,,
1186.0,0.0000,,
1190.0,0.0000,,
1194.0,0.0000,,
1198.0,0.0000,,
1202.0,0.0000,,
1206.0,0.0000,,
1210.0,0.0000,,
1214.0,0.0000,,
1218.0,0.0000,,
1222.0,0.0000,,
1226.0,0.0000,,
1230.0,0.0000,,
1234.0,0.0000,,
1238.0,0.0000,,
1242.0,0.0000,,
1246.0,0.0000,,
1250.0,0.0000,,
1254.0,0.0000,,
1258.0,0.0000,,
1262.0,0.0000,,
1266.0,0.0000,,
1270.0,0.0000,,
1274.0,0.0000,,
1278.0,0.0000,,
1282.0,0.0000,,
1286.0,0.0000,,
1290.0,0.0000,,
1294.0,0.0000,,
1298.0,0.0000,,
1302.0,0.0000,,
1306.0,0.0000,,
1310.0,0.0000,,
1314.0,0.0000,,
1318.0,0.0000,,
1322.0,0.0000,,
1326.0,0.0000,,
1330.0,0.0000,,
1334.0,0.0000,,
1338.0,0.0000,,
1342.0,0.0000,,
1346.0,0.0000,,
1350.0,0.0000,,
1354.0,0.0000,,
1358.0,0.0000,,
1362.0,0.0000,,
1366.0,0.0000,,
1370.0,0.0000,,
1374.0,0.0000,,
1378.0,0.0000,,
1382.0,0.0000,,
1386.0,0.0000,,
1390.0,0.0000,,
1394.0,0.0000,,
1398.0,0.0000,,
1402.0,0.0000,,
1406.0,0.0000,,
1410.0,0.0000,,
1414.0,0.0000,,
1418.0,0.0000,,
1422.0,0.0000,,
1426.0,0.0000,,
1430.0,0.0000,,
1434.0,0.0000,,
1438.0,0.0000,,
1442.0,0.0000,,
1446.0,0.0000,,
1450.0,0.0000,,
1454.0,0.0000,,
1458.0,0.0000,,
1462.0,0.0000,,
1466.0,0.0000,,
1470.0,0.0000,,
1474.0,0.0000,,
1478.0,0.0000,,
1482.0,0.0000,,
1486.0,0.0000,,
1490.0,0.0000,,
1494.0,0.0000,,
1498.0,0.0000,,
1502.0,0.0000,,
1506.0,0.0000,,
1510.0,0.0000,,
1514.0,0.0000,,
1518.0,0.0000,,
1522.0,0.0000,,
1526.0,0.0000,,
1530.0,0.0000,,
1534.0,0.0000,,
1538.0,0.0000,,
1542.0,0.0000,,
1546.0,0.0000,,
1550.0,0.0000,,
1554.0,0.0000,,
1558.0,0.0000,,
1562.0,0.0000,,
1566.0,0.0000,,
1570.0,0.0000,,
1574.0,0.0000,,
1578.0,0.0000,,
1582.0,0.0000,,
1586.0,0.0000,,
1590.0,0.0000,,
1594.0,0.0000,,
1598.0,0.0000,,
1602.0,0.0000,,
1606.0,0.0000,,
1610.0,0.0000,,
1614.0,0.0000,,
1618.0,0.0000,,
1622.0,0.0000,,
1626.0,0.0000,,
1630.0,0.0000,,
1634.0,0.0000,,
1638.0,0.0000,,
1642.0,0.0000,,
1646.0,0.0000,,
1650.0,0.0000,,
1654.0,0.0000,,
1658.0,0.0000,,
1662.0,0.0000,,
1666.0,0.0000,,
1670.0,0.0000,,
1674.0,0.0000,,
1678.0,0.0000,,
1682.0,0.0000,,
1686.0,0.0000,,
1690.0,0.0000,,
1694.0,0.0000,,
1698.0,0.0000,,
1702.0,0.0000,,
1706.0,0.0000,,
1710.0,0.0000,,
1714.0,0.0000,,
1718.0,0.0000,,
1722.0,0.0000,,
1726.0,0.0000,,
1730.0,0.0000,,
1734.0,0.0000,,
1738.0,0.0000,,
1742.0,0.0000,,
1746.0,0.0000,,
1750.0,0.0000,,
1754.0,0.0000,,
1758.0,0.0000,,
1762.0,0.0000,,
1766.0,0.0000,,
1770.0,0.0000,,
1774.0,0.0000,,
1778.0,0.0000,,
1782.0,0.0000,,
1786.0,0.0000,,
1790.0,0.0000,,
1794.0,0.0000,,
1798.0,0.0000,,
1802.0,0.0000,,
1806.0,0.0000,,
1810.0,0.0000,,
1814.0,0.0000,,
1818.0,0.0000,,
1822.0,0.0000,,
1826.0,0.0000,,
1830.0,0.0000,,
1834.0,0.0000,,
1838.0,0.0000,,
1842.0,0.0000,,
1846.0,0.0000,,
1850.0,0.0000,,
1854.0,0.0000,,
1858.0,0.0000,,
1862.0,0.0000,,
1866.0,0.0000,,
1870.0,0.0000,,
1874.0,0.0000,,
1878.0,0.0000,,
1882.0,0.0000,,
1886.0,0.0000,,
1890.0,0.0000,,
1894.0,0.0000,,
1898.0,0.0000,,
1902.0,0.0000,,
1906.0,0.0000,,
1910.0,0.0000,,
1914.0,0.0000,,
1918.0,0.0000,,
1922.0,0.0000,,
1926.0,0.0000,,
1930.0,0.0000,,
1934.0,0.0000,,
1938.0,0.0000,,
1942.0,0.0000,,
1946.0,0.0000,,
1950.0,0.0000,,
1954.0,0.0000,,
1958.0,0.0000,,
1962.0,0.0000,,
1966.0,0.0000,,
1970.0,0.0000,,
1974.0,0.0000,,
1978.0,0.0000,,
1982.0,0.0000,,
1986.0,0.0000,,
1990.0,0.0000,,
1994.0,0.0000,,
1998.0,0.0000,,

[Percentile Undersize]
Percentile,Particle Size (nm),
0,19,
1,41,
2,47,
3,51,
4,55,
5,59,
6,62,
7,66,
8,69,
9,72,
10,75,
11,78,
12,81,
13,84,
14,87,
15,90,
16,93,
17,96,
18,99,
19,101,
20,104,
21,106,
22,109,
23,111,
24,114,
25,116,
26,119,
27,121,
28,123,
29,125,
30,127,
31,129,
32,131,
33,133,
34,135,
35,137,
36,139,
37,141,
38,143,
39,145,
40,147,
41,149,
42,150,
43,152,
44,154,
45,156,
46,158,
47,159,
48,161,
49,163,
50,165,
51,166,
52,168,
53,169,
54,171,
55,173,
56,174,
57,176,
58,177,
59,179,
60,181,
61,182,
62,184,
63,185,
64,187,
65,188,
66,190,
67,191,
68,193,
69,194,
70,196,
71,197,
72,199,
73,200,
74,202,
75,203,
76,205,
77,207,
78,208,
79,210,
80,212,
81,214,
82,215,
83,217,
84,219,
85,222,
86,224,
87,226,
88,229,
89,231,
90,234,
91,238,
92,241,
93,245,
94,250,
95,256,
96,264,
97,275,
98,291,
99,317,
100,1047,

