[Software Info]
Build,NTA 2.3 build 0033

[Sample Information]
Operator,""
Sample Description,"coffee"
Diluent,"aqua dest."
Concentration,"1:4"
Pre-treatmeant,""
Comments,""

[Results Summary]
Total Frames,1800
Processed Frames,1800
Valid Tracks,4706
Overall Drift (nm/s),65.21
X-Drift (nm/s),-65.17
Y-Drift (nm/s),-2.22
Calibration (nm/pixel),166

Size data - Model Fit,
Mean (nm),0.00
Standard Deviation (nm),0.00
Diffusion Coefficient Data,
Mode (E4 nm^2/s),231.00
Mean (E4 nm^2/s),545.69
Standard Deviation (E4 nm^2/s),310.71

User Line 1,0
User Line 2,0
Average # centres/frame,92.68
Average # particles/frame,67.91
Equivalent particle concentration (E8 particles/ml),11.03
Selected average # particles/frame,0.00
Selected equivalent particle concentration (E8 particles/ml),0.00

[Settings],
Background Extract,On
Brightness,0
Gain,1.00
Blur Size,Auto,
Detection Threshold Type,Multi,
Detection Threshold,32
Min Track Length,Auto
Min Expected Size (nm),Auto

[Measurement Conditions]
Camera Type,CCD
Camera Shutter (ms),10.14
Camera Gain,404
Frame rate (fps),30.00
Temperature (°C),24.60
Viscosity (cP),0.897

[Warnings]
Low Completed Tracks,No
High Noise,1 frames
Auto max jump,Successful
Drift off,No
Settings Changed Whilst Processing,No
Vibration detected,Vibration detected >~10% error
Additional Errors,None

[Graph Data]
Diffusion Coefficient (E4 nm²/s), Concentration (E6 particles / ml),,
0,0.0000,,
1,0.0000,,
2,0.0000,,
3,0.0000,,
4,0.0000,,
5,0.0000,,
6,0.0000,,
7,0.0000,,
8,0.0000,,
9,0.0000,,
10,0.0000,,
11,0.0000,,
12,0.0000,,
13,0.0000,,
14,0.0000,,
15,0.0000,,
16,0.0000,,
17,0.0000,,
18,0.0000,,
19,0.0000,,
20,0.0000,,
21,0.0000,,
22,0.0000,,
23,0.0000,,
24,0.0000,,
25,0.0000,,
26,0.0000,,
27,0.0000,,
28,0.0000,,
29,0.0000,,
30,0.0000,,
31,0.0000,,
32,0.0000,,
33,0.0000,,
34,0.0000,,
35,0.0000,,
36,0.0000,,
37,0.0000,,
38,0.0000,,
39,0.0000,,
40,0.0000,,
41,0.0000,,
42,0.0000,,
43,0.0000,,
44,0.0000,,
45,0.0000,,
46,0.0000,,
47,0.0000,,
48,0.0000,,
49,0.0000,,
50,0.0000,,
51,0.0000,,
52,0.0000,,
53,0.0000,,
54,0.0000,,
55,0.0001,,
56,0.0002,,
57,0.0003,,
58,0.0007,,
59,0.0012,,
60,0.0021,,
61,0.0035,,
62,0.0057,,
63,0.0088,,
64,0.0131,,
65,0.0188,,
66,0.0262,,
67,0.0353,,
68,0.0461,,
69,0.0584,,
70,0.0719,,
71,0.0863,,
72,0.1009,,
73,0.1155,,
74,0.1294,,
75,0.1423,,
76,0.1538,,
77,0.1639,,
78,0.1726,,
79,0.1803,,
80,0.1874,,
81,0.1947,,
82,0.2029,,
83,0.2123,,
84,0.2236,,
85,0.2368,,
86,0.2515,,
87,0.2670,,
88,0.2827,,
89,0.2976,,
90,0.3110,,
91,0.3225,,
92,0.3321,,
93,0.3403,,
94,0.3480,,
95,0.3567,,
96,0.3680,,
97,0.3837,,
98,0.4056,,
99,0.4352,,
100,0.4738,,
101,0.5224,,
102,0.5812,,
103,0.6503,,
104,0.7291,,
105,0.8163,,
106,0.9106,,
107,1.0098,,
108,1.1117,,
109,1.2134,,
110,1.3123,,
111,1.4054,,
112,1.4899,,
113,1.5631,,
114,1.6228,,
115,1.6676,,
116,1.6958,,
117,1.7074,,
118,1.7024,,
119,1.6819,,
120,1.6474,,
121,1.6008,,
122,1.5444,,
123,1.4810,,
124,1.4130,,
125,1.3430,,
126,1.2735,,
127,1.2064,,
128,1.1434,,
129,1.0857,,
130,1.0344,,
131,0.9900,,
132,0.9527,,
133,0.9224,,
134,0.8990,,
135,0.8820,,
136,0.8711,,
137,0.8658,,
138,0.8656,,
139,0.8701,,
140,0.8788,,
141,0.8914,,
142,0.9075,,
143,0.9267,,
144,0.9489,,
145,0.9734,,
146,0.9999,,
147,1.0280,,
148,1.0571,,
149,1.0867,,
150,1.1164,,
151,1.1454,,
152,1.1733,,
153,1.1994,,
154,1.2233,,
155,1.2446,,
156,1.2629,,
157,1.2780,,
158,1.2896,,
159,1.2979,,
160,1.3027,,
161,1.3044,,
162,1.3031,,
163,1.2993,,
164,1.2932,,
165,1.2854,,
166,1.2764,,
167,1.2664,,
168,1.2561,,
169,1.2457,,
170,1.2358,,
171,1.2264,,
172,1.2180,,
173,1.2106,,
174,1.2043,,
175,1.1994,,
176,1.1956,,
177,1.1931,,
178,1.1916,,
179,1.1910,,
180,1.1913,,
181,1.1921,,
182,1.1934,,
183,1.1951,,
184,1.1969,,
185,1.1988,,
186,1.2007,,
187,1.2025,,
188,1.2042,,
189,1.2058,,
190,1.2074,,
191,1.2089,,
192,1.2105,,
193,1.2123,,
194,1.2143,,
195,1.2169,,
196,1.2200,,
197,1.2238,,
198,1.2284,,
199,1.2341,,
200,1.2410,,
201,1.2490,,
202,1.2585,,
203,1.2693,,
204,1.2815,,
205,1.2953,,
206,1.3105,,
207,1.3271,,
208,1.3451,,
209,1.3644,,
210,1.3849,,
211,1.4064,,
212,1.4288,,
213,1.4519,,
214,1.4754,,
215,1.4992,,
216,1.5230,,
217,1.5467,,
218,1.5699,,
219,1.5924,,
220,1.6141,,
221,1.6346,,
222,1.6537,,
223,1.6714,,
224,1.6873,,
225,1.7014,,
226,1.7135,,
227,1.7236,,
228,1.7315,,
229,1.7372,,
230,1.7408,,
231,1.7422,,
232,1.7415,,
233,1.7388,,
234,1.7342,,
235,1.7278,,
236,1.7198,,
237,1.7103,,
238,1.6996,,
239,1.6877,,
240,1.6749,,
241,1.6614,,
242,1.6474,,
243,1.6330,,
244,1.6184,,
245,1.6038,,
246,1.5894,,
247,1.5753,,
248,1.5616,,
249,1.5484,,
250,1.5358,,
251,1.5239,,
252,1.5128,,
253,1.5025,,
254,1.4930,,
255,1.4843,,
256,1.4764,,
257,1.4694,,
258,1.4631,,
259,1.4576,,
260,1.4528,,
261,1.4486,,
262,1.4451,,
263,1.4421,,
264,1.4396,,
265,1.4375,,
266,1.4357,,
267,1.4343,,
268,1.4331,,
269,1.4320,,
270,1.4311,,
271,1.4303,,
272,1.4295,,
273,1.4288,,
274,1.4279,,
275,1.4271,,
276,1.4261,,
277,1.4250,,
278,1.4238,,
279,1.4224,,
280,1.4209,,
281,1.4192,,
282,1.4174,,
283,1.4155,,
284,1.4134,,
285,1.4113,,
286,1.4090,,
287,1.4066,,
288,1.4041,,
289,1.4017,,
290,1.3992,,
291,1.3967,,
292,1.3942,,
293,1.3917,,
294,1.3893,,
295,1.3870,,
296,1.3847,,
297,1.3825,,
298,1.3804,,
299,1.3785,,
300,1.3767,,
301,1.3750,,
302,1.3734,,
303,1.3720,,
304,1.3707,,
305,1.3696,,
306,1.3686,,
307,1.3677,,
308,1.3670,,
309,1.3665,,
310,1.3660,,
311,1.3657,,
312,1.3654,,
313,1.3653,,
314,1.3652,,
315,1.3652,,
316,1.3653,,
317,1.3654,,
318,1.3656,,
319,1.3657,,
320,1.3659,,
321,1.3660,,
322,1.3662,,
323,1.3663,,
324,1.3664,,
325,1.3664,,
326,1.3664,,
327,1.3663,,
328,1.3661,,
329,1.3658,,
330,1.3655,,
331,1.3651,,
332,1.3645,,
333,1.3639,,
334,1.3631,,
335,1.3622,,
336,1.3612,,
337,1.3601,,
338,1.3588,,
339,1.3575,,
340,1.3560,,
341,1.3544,,
342,1.3527,,
343,1.3509,,
344,1.3490,,
345,1.3470,,
346,1.3449,,
347,1.3427,,
348,1.3404,,
349,1.3380,,
350,1.3356,,
351,1.3331,,
352,1.3306,,
353,1.3281,,
354,1.3255,,
355,1.3229,,
356,1.3203,,
357,1.3177,,
358,1.3151,,
359,1.3126,,
360,1.3101,,
361,1.3076,,
362,1.3052,,
363,1.3029,,
364,1.3006,,
365,1.2984,,
366,1.2964,,
367,1.2944,,
368,1.2925,,
369,1.2908,,
370,1.2892,,
371,1.2877,,
372,1.2864,,
373,1.2852,,
374,1.2841,,
375,1.2833,,
376,1.2825,,
377,1.2820,,
378,1.2816,,
379,1.2813,,
380,1.2812,,
381,1.2813,,
382,1.2815,,
383,1.2819,,
384,1.2824,,
385,1.2832,,
386,1.2840,,
387,1.2851,,
388,1.2862,,
389,1.2876,,
390,1.2891,,
391,1.2907,,
392,1.2924,,
393,1.2943,,
394,1.2963,,
395,1.2985,,
396,1.3008,,
397,1.3032,,
398,1.3057,,
399,1.3084,,
400,1.3111,,
401,1.3140,,
402,1.3170,,
403,1.3200,,
404,1.3232,,
405,1.3265,,
406,1.3298,,
407,1.3333,,
408,1.3368,,
409,1.3405,,
410,1.3442,,
411,1.3480,,
412,1.3518,,
413,1.3558,,
414,1.3598,,
415,1.3639,,
416,1.3680,,
417,1.3722,,
418,1.3765,,
419,1.3808,,
420,1.3852,,
421,1.3896,,
422,1.3941,,
423,1.3986,,
424,1.4031,,
425,1.4076,,
426,1.4122,,
427,1.4168,,
428,1.4215,,
429,1.4261,,
430,1.4307,,
431,1.4354,,
432,1.4400,,
433,1.4447,,
434,1.4493,,
435,1.4539,,
436,1.4585,,
437,1.4631,,
438,1.4676,,
439,1.4721,,
440,1.4765,,
441,1.4809,,
442,1.4853,,
443,1.4896,,
444,1.4938,,
445,1.4979,,
446,1.5020,,
447,1.5060,,
448,1.5099,,
449,1.5137,,
450,1.5174,,
451,1.5211,,
452,1.5246,,
453,1.5280,,
454,1.5313,,
455,1.5344,,
456,1.5375,,
457,1.5404,,
458,1.5432,,
459,1.5458,,
460,1.5484,,
461,1.5507,,
462,1.5530,,
463,1.5551,,
464,1.5570,,
465,1.5588,,
466,1.5604,,
467,1.5619,,
468,1.5632,,
469,1.5643,,
470,1.5653,,
471,1.5661,,
472,1.5668,,
473,1.5673,,
474,1.5676,,
475,1.5678,,
476,1.5678,,
477,1.5677,,
478,1.5673,,
479,1.5669,,
480,1.5662,,
481,1.5655,,
482,1.5645,,
483,1.5634,,
484,1.5622,,
485,1.5608,,
486,1.5593,,
487,1.5576,,
488,1.5558,,
489,1.5539,,
490,1.5518,,
491,1.5496,,
492,1.5473,,
493,1.5449,,
494,1.5424,,
495,1.5397,,
496,1.5370,,
497,1.5342,,
498,1.5312,,
499,1.5282,,
500,1.5251,,
501,1.5219,,
502,1.5186,,
503,1.5153,,
504,1.5119,,
505,1.5085,,
506,1.5050,,
507,1.5014,,
508,1.4979,,
509,1.4942,,
510,1.4906,,
511,1.4869,,
512,1.4831,,
513,1.4794,,
514,1.4756,,
515,1.4718,,
516,1.4680,,
517,1.4642,,
518,1.4604,,
519,1.4566,,
520,1.4528,,
521,1.4490,,
522,1.4452,,
523,1.4415,,
524,1.4377,,
525,1.4340,,
526,1.4302,,
527,1.4266,,
528,1.4229,,
529,1.4193,,
530,1.4156,,
531,1.4121,,
532,1.4085,,
533,1.4050,,
534,1.4016,,
535,1.3981,,
536,1.3947,,
537,1.3914,,
538,1.3881,,
539,1.3848,,
540,1.3816,,
541,1.3784,,
542,1.3753,,
543,1.3722,,
544,1.3691,,
545,1.3662,,
546,1.3632,,
547,1.3603,,
548,1.3575,,
549,1.3547,,
550,1.3519,,
551,1.3492,,
552,1.3465,,
553,1.3439,,
554,1.3414,,
555,1.3388,,
556,1.3363,,
557,1.3339,,
558,1.3315,,
559,1.3292,,
560,1.3269,,
561,1.3246,,
562,1.3224,,
563,1.3202,,
564,1.3180,,
565,1.3159,,
566,1.3139,,
567,1.3118,,
568,1.3098,,
569,1.3078,,
570,1.3059,,
571,1.3040,,
572,1.3021,,
573,1.3003,,
574,1.2985,,
575,1.2967,,
576,1.2949,,
577,1.2932,,
578,1.2914,,
579,1.2897,,
580,1.2880,,
581,1.2864,,
582,1.2847,,
583,1.2831,,
584,1.2815,,
585,1.2799,,
586,1.2783,,
587,1.2767,,
588,1.2751,,
589,1.2736,,
590,1.2720,,
591,1.2705,,
592,1.2689,,
593,1.2674,,
594,1.2659,,
595,1.2644,,
596,1.2628,,
597,1.2613,,
598,1.2598,,
599,1.2583,,
600,1.2567,,
601,1.2552,,
602,1.2537,,
603,1.2521,,
604,1.2506,,
605,1.2490,,
606,1.2475,,
607,1.2459,,
608,1.2443,,
609,1.2427,,
610,1.2411,,
611,1.2395,,
612,1.2379,,
613,1.2363,,
614,1.2346,,
615,1.2330,,
616,1.2313,,
617,1.2296,,
618,1.2279,,
619,1.2262,,
620,1.2244,,
621,1.2226,,
622,1.2209,,
623,1.2190,,
624,1.2172,,
625,1.2154,,
626,1.2135,,
627,1.2116,,
628,1.2097,,
629,1.2078,,
630,1.2058,,
631,1.2038,,
632,1.2018,,
633,1.1997,,
634,1.1977,,
635,1.1956,,
636,1.1935,,
637,1.1913,,
638,1.1891,,
639,1.1869,,
640,1.1847,,
641,1.1824,,
642,1.1801,,
643,1.1778,,
644,1.1754,,
645,1.1730,,
646,1.1706,,
647,1.1682,,
648,1.1657,,
649,1.1632,,
650,1.1607,,
651,1.1581,,
652,1.1555,,
653,1.1529,,
654,1.1503,,
655,1.1476,,
656,1.1449,,
657,1.1422,,
658,1.1394,,
659,1.1366,,
660,1.1338,,
661,1.1310,,
662,1.1281,,
663,1.1253,,
664,1.1224,,
665,1.1194,,
666,1.1165,,
667,1.1135,,
668,1.1105,,
669,1.1075,,
670,1.1045,,
671,1.1015,,
672,1.0984,,
673,1.0954,,
674,1.0923,,
675,1.0892,,
676,1.0861,,
677,1.0829,,
678,1.0798,,
679,1.0767,,
680,1.0735,,
681,1.0704,,
682,1.0672,,
683,1.0641,,
684,1.0609,,
685,1.0577,,
686,1.0546,,
687,1.0514,,
688,1.0482,,
689,1.0451,,
690,1.0419,,
691,1.0387,,
692,1.0356,,
693,1.0324,,
694,1.0293,,
695,1.0261,,
696,1.0230,,
697,1.0199,,
698,1.0167,,
699,1.0136,,
700,1.0105,,
701,1.0074,,
702,1.0044,,
703,1.0013,,
704,0.9982,,
705,0.9952,,
706,0.9922,,
707,0.9892,,
708,0.9862,,
709,0.9832,,
710,0.9802,,
711,0.9772,,
712,0.9743,,
713,0.9714,,
714,0.9685,,
715,0.9656,,
716,0.9627,,
717,0.9598,,
718,0.9570,,
719,0.9541,,
720,0.9513,,
721,0.9485,,
722,0.9457,,
723,0.9430,,
724,0.9402,,
725,0.9374,,
726,0.9347,,
727,0.9320,,
728,0.9293,,
729,0.9266,,
730,0.9239,,
731,0.9212,,
732,0.9186,,
733,0.9159,,
734,0.9133,,
735,0.9107,,
736,0.9080,,
737,0.9054,,
738,0.9028,,
739,0.9003,,
740,0.8977,,
741,0.8951,,
742,0.8925,,
743,0.8900,,
744,0.8874,,
745,0.8849,,
746,0.8823,,
747,0.8798,,
748,0.8772,,
749,0.8747,,
750,0.8722,,
751,0.8697,,
752,0.8671,,
753,0.8646,,
754,0.8621,,
755,0.8596,,
756,0.8570,,
757,0.8545,,
758,0.8520,,
759,0.8495,,
760,0.8470,,
761,0.8444,,
762,0.8419,,
763,0.8394,,
764,0.8368,,
765,0.8343,,
766,0.8318,,
767,0.8292,,
768,0.8267,,
769,0.8242,,
770,0.8216,,
771,0.8191,,
772,0.8165,,
773,0.8140,,
774,0.8114,,
775,0.8089,,
776,0.8063,,
777,0.8037,,
778,0.8012,,
779,0.7986,,
780,0.7960,,
781,0.7934,,
782,0.7908,,
783,0.7883,,
784,0.7857,,
785,0.7831,,
786,0.7805,,
787,0.7779,,
788,0.7753,,
789,0.7727,,
790,0.7701,,
791,0.7675,,
792,0.7649,,
793,0.7623,,
794,0.7597,,
795,0.7571,,
796,0.7545,,
797,0.7519,,
798,0.7493,,
799,0.7467,,
800,0.7442,,
801,0.7416,,
802,0.7390,,
803,0.7364,,
804,0.7338,,
805,0.7313,,
806,0.7287,,
807,0.7261,,
808,0.7236,,
809,0.7210,,
810,0.7185,,
811,0.7159,,
812,0.7134,,
813,0.7109,,
814,0.7084,,
815,0.7059,,
816,0.7034,,
817,0.7009,,
818,0.6984,,
819,0.6959,,
820,0.6935,,
821,0.6910,,
822,0.6886,,
823,0.6862,,
824,0.6838,,
825,0.6814,,
826,0.6790,,
827,0.6766,,
828,0.6743,,
829,0.6719,,
830,0.6696,,
831,0.6673,,
832,0.6650,,
833,0.6627,,
834,0.6604,,
835,0.6582,,
836,0.6559,,
837,0.6537,,
838,0.6515,,
839,0.6493,,
840,0.6471,,
841,0.6450,,
842,0.6428,,
843,0.6407,,
844,0.6386,,
845,0.6365,,
846,0.6345,,
847,0.6324,,
848,0.6304,,
849,0.6284,,
850,0.6264,,
851,0.6244,,
852,0.6224,,
853,0.6205,,
854,0.6185,,
855,0.6166,,
856,0.6147,,
857,0.6129,,
858,0.6110,,
859,0.6092,,
860,0.6073,,
861,0.6055,,
862,0.6037,,
863,0.6020,,
864,0.6002,,
865,0.5985,,
866,0.5967,,
867,0.5950,,
868,0.5933,,
869,0.5917,,
870,0.5900,,
871,0.5884,,
872,0.5867,,
873,0.5851,,
874,0.5835,,
875,0.5819,,
876,0.5804,,
877,0.5788,,
878,0.5773,,
879,0.5757,,
880,0.5742,,
881,0.5727,,
882,0.5712,,
883,0.5698,,
884,0.5683,,
885,0.5668,,
886,0.5654,,
887,0.5640,,
888,0.5625,,
889,0.5611,,
890,0.5597,,
891,0.5583,,
892,0.5570,,
893,0.5556,,
894,0.5542,,
895,0.5529,,
896,0.5515,,
897,0.5502,,
898,0.5489,,
899,0.5475,,
900,0.5462,,
901,0.5449,,
902,0.5436,,
903,0.5423,,
904,0.5410,,
905,0.5398,,
906,0.5385,,
907,0.5372,,
908,0.5359,,
909,0.5347,,
910,0.5334,,
911,0.5322,,
912,0.5309,,
913,0.5297,,
914,0.5284,,
915,0.5272,,
916,0.5259,,
917,0.5247,,
918,0.5235,,
919,0.5222,,
920,0.5210,,
921,0.5198,,
922,0.5186,,
923,0.5173,,
924,0.5161,,
925,0.5149,,
926,0.5137,,
927,0.5124,,
928,0.5112,,
929,0.5100,,
930,0.5088,,
931,0.5075,,
932,0.5063,,
933,0.5051,,
934,0.5038,,
935,0.5026,,
936,0.5014,,
937,0.5001,,
938,0.4989,,
939,0.4977,,
940,0.4964,,
941,0.4952,,
942,0.4939,,
943,0.4927,,
944,0.4914,,
945,0.4902,,
946,0.4889,,
947,0.4876,,
948,0.4864,,
949,0.4851,,
950,0.4838,,
951,0.4825,,
952,0.4813,,
953,0.4800,,
954,0.4787,,
955,0.4774,,
956,0.4761,,
957,0.4748,,
958,0.4735,,
959,0.4722,,
960,0.4708,,
961,0.4695,,
962,0.4682,,
963,0.4669,,
964,0.4655,,
965,0.4642,,
966,0.4628,,
967,0.4615,,
968,0.4601,,
969,0.4588,,
970,0.4574,,
971,0.4560,,
972,0.4546,,
973,0.4532,,
974,0.4519,,
975,0.4505,,
976,0.4491,,
977,0.4477,,
978,0.4462,,
979,0.4448,,
980,0.4434,,
981,0.4420,,
982,0.4405,,
983,0.4391,,
984,0.4377,,
985,0.4362,,
986,0.4348,,
987,0.4333,,
988,0.4318,,
989,0.4304,,
990,0.4289,,
991,0.4274,,
992,0.4259,,
993,0.4244,,
994,0.4229,,
995,0.4214,,
996,0.4199,,
997,0.4184,,
998,0.4169,,
999,0.4154,,
1000,0.4138,,
1001,0.4123,,
1002,0.4108,,
1003,0.4092,,
1004,0.4077,,
1005,0.4062,,
1006,0.4046,,
1007,0.4030,,
1008,0.4015,,
1009,0.3999,,
1010,0.3983,,
1011,0.3968,,
1012,0.3952,,
1013,0.3936,,
1014,0.3920,,
1015,0.3904,,
1016,0.3889,,
1017,0.3873,,
1018,0.3857,,
1019,0.3841,,
1020,0.3825,,
1021,0.3809,,
1022,0.3792,,
1023,0.3776,,
1024,0.3760,,
1025,0.3744,,
1026,0.3728,,
1027,0.3712,,
1028,0.3695,,
1029,0.3679,,
1030,0.3663,,
1031,0.3647,,
1032,0.3630,,
1033,0.3614,,
1034,0.3598,,
1035,0.3582,,
1036,0.3565,,
1037,0.3549,,
1038,0.3533,,
1039,0.3516,,
1040,0.3500,,
1041,0.3484,,
1042,0.3467,,
1043,0.3451,,
1044,0.3435,,
1045,0.3419,,
1046,0.3402,,
1047,0.3386,,
1048,0.3370,,
1049,0.3353,,
1050,0.3337,,
1051,0.3321,,
1052,0.3305,,
1053,0.3289,,
1054,0.3272,,
1055,0.3256,,
1056,0.3240,,
1057,0.3224,,
1058,0.3208,,
1059,0.3192,,
1060,0.3176,,
1061,0.3160,,
1062,0.3144,,
1063,0.3128,,
1064,0.3112,,
1065,0.3096,,
1066,0.3080,,
1067,0.3065,,
1068,0.3049,,
1069,0.3033,,
1070,0.3018,,
1071,0.3002,,
1072,0.2986,,
1073,0.2971,,
1074,0.2956,,
1075,0.2940,,
1076,0.2925,,
1077,0.2909,,
1078,0.2894,,
1079,0.2879,,
1080,0.2864,,
1081,0.2849,,
1082,0.2834,,
1083,0.2819,,
1084,0.2804,,
1085,0.2789,,
1086,0.2774,,
1087,0.2760,,
1088,0.2745,,
1089,0.2730,,
1090,0.2716,,
1091,0.2701,,
1092,0.2687,,
1093,0.2673,,
1094,0.2658,,
1095,0.2644,,
1096,0.2630,,
1097,0.2616,,
1098,0.2602,,
1099,0.2588,,
1100,0.2574,,
1101,0.2561,,
1102,0.2547,,
1103,0.2534,,
1104,0.2520,,
1105,0.2507,,
1106,0.2493,,
1107,0.2480,,
1108,0.2467,,
1109,0.2454,,
1110,0.2441,,
1111,0.2428,,
1112,0.2415,,
1113,0.2402,,
1114,0.2390,,
1115,0.2377,,
1116,0.2364,,
1117,0.2352,,
1118,0.2340,,
1119,0.2327,,
1120,0.2315,,
1121,0.2303,,
1122,0.2291,,
1123,0.2279,,
1124,0.2268,,
1125,0.2256,,
1126,0.2244,,
1127,0.2233,,
1128,0.2221,,
1129,0.2210,,
1130,0.2199,,
1131,0.2187,,
1132,0.2176,,
1133,0.2165,,
1134,0.2154,,
1135,0.2143,,
1136,0.2133,,
1137,0.2122,,
1138,0.2111,,
1139,0.2101,,
1140,0.2091,,
1141,0.2080,,
1142,0.2070,,
1143,0.2060,,
1144,0.2050,,
1145,0.2040,,
1146,0.2030,,
1147,0.2020,,
1148,0.2010,,
1149,0.2001,,
1150,0.1991,,
1151,0.1982,,
1152,0.1973,,
1153,0.1963,,
1154,0.1954,,
1155,0.1945,,
1156,0.1936,,
1157,0.1927,,
1158,0.1918,,
1159,0.1910,,
1160,0.1901,,
1161,0.1892,,
1162,0.1884,,
1163,0.1875,,
1164,0.1867,,
1165,0.1859,,
1166,0.1851,,
1167,0.1843,,
1168,0.1835,,
1169,0.1827,,
1170,0.1819,,
1171,0.1811,,
1172,0.1803,,
1173,0.1796,,
1174,0.1788,,
1175,0.1781,,
1176,0.1773,,
1177,0.1766,,
1178,0.1759,,
1179,0.1751,,
1180,0.1744,,
1181,0.1737,,
1182,0.1730,,
1183,0.1723,,
1184,0.1716,,
1185,0.1710,,
1186,0.1703,,
1187,0.1696,,
1188,0.1690,,
1189,0.1683,,
1190,0.1677,,
1191,0.1671,,
1192,0.1664,,
1193,0.1658,,
1194,0.1652,,
1195,0.1646,,
1196,0.1640,,
1197,0.1634,,
1198,0.1628,,
1199,0.1622,,
1200,0.1616,,
1201,0.1610,,
1202,0.1605,,
1203,0.1599,,
1204,0.1593,,
1205,0.1588,,
1206,0.1582,,
1207,0.1577,,
1208,0.1572,,
1209,0.1566,,
1210,0.1561,,
1211,0.1556,,
1212,0.1550,,
1213,0.1545,,
1214,0.1540,,
1215,0.1535,,
1216,0.1530,,
1217,0.1525,,
1218,0.1520,,
1219,0.1515,,
1220,0.1511,,
1221,0.1506,,
1222,0.1501,,
1223,0.1496,,
1224,0.1492,,
1225,0.1487,,
1226,0.1483,,
1227,0.1478,,
1228,0.1473,,
1229,0.1469,,
1230,0.1465,,
1231,0.1460,,
1232,0.1456,,
1233,0.1451,,
1234,0.1447,,
1235,0.1443,,
1236,0.1439,,
1237,0.1434,,
1238,0.1430,,
1239,0.1426,,
1240,0.1422,,
1241,0.1418,,
1242,0.1414,,
1243,0.1410,,
1244,0.1406,,
1245,0.1402,,
1246,0.1398,,
1247,0.1394,,
1248,0.1390,,
1249,0.1386,,
1250,0.1382,,
1251,0.1378,,
1252,0.1374,,
1253,0.1370,,
1254,0.1366,,
1255,0.1363,,
1256,0.1359,,
1257,0.1355,,
1258,0.1351,,
1259,0.1348,,
1260,0.1344,,
1261,0.1340,,
1262,0.1336,,
1263,0.1333,,
1264,0.1329,,
1265,0.1325,,
1266,0.1322,,
1267,0.1318,,
1268,0.1315,,
1269,0.1311,,
1270,0.1307,,
1271,0.1304,,
1272,0.1300,,
1273,0.1297,,
1274,0.1293,,
1275,0.1289,,
1276,0.1286,,
1277,0.1282,,
1278,0.1279,,
1279,0.1275,,
1280,0.1272,,
1281,0.1268,,
1282,0.1265,,
1283,0.1261,,
1284,0.1258,,
1285,0.1254,,
1286,0.1251,,
1287,0.1247,,
1288,0.1244,,
1289,0.1240,,
1290,0.1237,,
1291,0.1233,,
1292,0.1229,,
1293,0.1226,,
1294,0.1222,,
1295,0.1219,,
1296,0.1215,,
1297,0.1212,,
1298,0.1208,,
1299,0.1205,,
1300,0.1201,,
1301,0.1198,,
1302,0.1194,,
1303,0.1191,,
1304,0.1187,,
1305,0.1184,,
1306,0.1180,,
1307,0.1177,,
1308,0.1173,,
1309,0.1170,,
1310,0.1166,,
1311,0.1163,,
1312,0.1159,,
1313,0.1155,,
1314,0.1152,,
1315,0.1148,,
1316,0.1145,,
1317,0.1141,,
1318,0.1138,,
1319,0.1134,,
1320,0.1130,,
1321,0.1127,,
1322,0.1123,,
1323,0.1120,,
1324,0.1116,,
1325,0.1112,,
1326,0.1109,,
1327,0.1105,,
1328,0.1102,,
1329,0.1098,,
1330,0.1094,,
1331,0.1091,,
1332,0.1087,,
1333,0.1083,,
1334,0.1080,,
1335,0.1076,,
1336,0.1072,,
1337,0.1069,,
1338,0.1065,,
1339,0.1061,,
1340,0.1057,,
1341,0.1054,,
1342,0.1050,,
1343,0.1046,,
1344,0.1043,,
1345,0.1039,,
1346,0.1035,,
1347,0.1032,,
1348,0.1028,,
1349,0.1024,,
1350,0.1020,,
1351,0.1017,,
1352,0.1013,,
1353,0.1009,,
1354,0.1005,,
1355,0.1002,,
1356,0.0998,,
1357,0.0994,,
1358,0.0990,,
1359,0.0987,,
1360,0.0983,,
1361,0.0979,,
1362,0.0975,,
1363,0.0971,,
1364,0.0968,,
1365,0.0964,,
1366,0.0960,,
1367,0.0956,,
1368,0.0953,,
1369,0.0949,,
1370,0.0945,,
1371,0.0941,,
1372,0.0937,,
1373,0.0934,,
1374,0.0930,,
1375,0.0926,,
1376,0.0922,,
1377,0.0918,,
1378,0.0915,,
1379,0.0911,,
1380,0.0907,,
1381,0.0903,,
1382,0.0900,,
1383,0.0896,,
1384,0.0892,,
1385,0.0888,,
1386,0.0885,,
1387,0.0881,,
1388,0.0877,,
1389,0.0873,,
1390,0.0870,,
1391,0.0866,,
1392,0.0862,,
1393,0.0858,,
1394,0.0855,,
1395,0.0851,,
1396,0.0847,,
1397,0.0844,,
1398,0.0840,,
1399,0.0836,,
1400,0.0832,,
1401,0.0829,,
1402,0.0825,,
1403,0.0821,,
1404,0.0818,,
1405,0.0814,,
1406,0.0811,,
1407,0.0807,,
1408,0.0803,,
1409,0.0800,,
1410,0.0796,,
1411,0.0792,,
1412,0.0789,,
1413,0.0785,,
1414,0.0782,,
1415,0.0778,,
1416,0.0775,,
1417,0.0771,,
1418,0.0768,,
1419,0.0764,,
1420,0.0761,,
1421,0.0757,,
1422,0.0754,,
1423,0.0750,,
1424,0.0747,,
1425,0.0743,,
1426,0.0740,,
1427,0.0736,,
1428,0.0733,,
1429,0.0730,,
1430,0.0726,,
1431,0.0723,,
1432,0.0720,,
1433,0.0716,,
1434,0.0713,,
1435,0.0710,,
1436,0.0706,,
1437,0.0703,,
1438,0.0700,,
1439,0.0697,,
1440,0.0693,,
1441,0.0690,,
1442,0.0687,,
1443,0.0684,,
1444,0.0681,,
1445,0.0677,,
1446,0.0674,,
1447,0.0671,,
1448,0.0668,,
1449,0.0665,,
1450,0.0662,,
1451,0.0659,,
1452,0.0656,,
1453,0.0653,,
1454,0.0650,,
1455,0.0647,,
1456,0.0644,,
1457,0.0641,,
1458,0.0638,,
1459,0.0635,,
1460,0.0632,,
1461,0.0629,,
1462,0.0626,,
1463,0.0623,,
1464,0.0620,,
1465,0.0617,,
1466,0.0615,,
1467,0.0612,,
1468,0.0609,,
1469,0.0606,,
1470,0.0603,,
1471,0.0601,,
1472,0.0598,,
1473,0.0595,,
1474,0.0592,,
1475,0.0590,,
1476,0.0587,,
1477,0.0584,,
1478,0.0582,,
1479,0.0579,,
1480,0.0576,,
1481,0.0574,,
1482,0.0571,,
1483,0.0569,,
1484,0.0566,,
1485,0.0564,,
1486,0.0561,,
1487,0.0559,,
1488,0.0556,,
1489,0.0554,,
1490,0.0551,,
1491,0.0549,,
1492,0.0546,,
1493,0.0544,,
1494,0.0542,,
1495,0.0539,,
1496,0.0537,,
1497,0.0534,,
1498,0.0532,,
1499,0.0530,,
1500,0.0527,,
1501,0.0525,,
1502,0.0523,,
1503,0.0521,,
1504,0.0518,,
1505,0.0516,,
1506,0.0514,,
1507,0.0512,,
1508,0.0509,,
1509,0.0507,,
1510,0.0505,,
1511,0.0503,,
1512,0.0501,,
1513,0.0499,,
1514,0.0496,,
1515,0.0494,,
1516,0.0492,,
1517,0.0490,,
1518,0.0488,,
1519,0.0486,,
1520,0.0484,,
1521,0.0482,,
1522,0.0480,,
1523,0.0478,,
1524,0.0476,,
1525,0.0474,,
1526,0.0472,,
1527,0.0470,,
1528,0.0468,,
1529,0.0466,,
1530,0.0464,,
1531,0.0462,,
1532,0.0460,,
1533,0.0458,,
1534,0.0456,,
1535,0.0454,,
1536,0.0452,,
1537,0.0451,,
1538,0.0449,,
1539,0.0447,,
1540,0.0445,,
1541,0.0443,,
1542,0.0441,,
1543,0.0439,,
1544,0.0438,,
1545,0.0436,,
1546,0.0434,,
1547,0.0432,,
1548,0.0431,,
1549,0.0429,,
1550,0.0427,,
1551,0.0425,,
1552,0.0424,,
1553,0.0422,,
1554,0.0420,,
1555,0.0418,,
1556,0.0417,,
1557,0.0415,,
1558,0.0413,,
1559,0.0412,,
1560,0.0410,,
1561,0.0408,,
1562,0.0406,,
1563,0.0405,,
1564,0.0403,,
1565,0.0402,,
1566,0.0400,,
1567,0.0398,,
1568,0.0397,,
1569,0.0395,,
1570,0.0393,,
1571,0.0392,,
1572,0.0390,,
1573,0.0389,,
1574,0.0387,,
1575,0.0385,,
1576,0.0384,,
1577,0.0382,,
1578,0.0381,,
1579,0.0379,,
1580,0.0378,,
1581,0.0376,,
1582,0.0374,,
1583,0.0373,,
1584,0.0371,,
1585,0.0370,,
1586,0.0368,,
1587,0.0367,,
1588,0.0365,,
1589,0.0364,,
1590,0.0362,,
1591,0.0361,,
1592,0.0359,,
1593,0.0358,,
1594,0.0356,,
1595,0.0355,,
1596,0.0353,,
1597,0.0352,,
1598,0.0350,,
1599,0.0349,,
1600,0.0348,,
1601,0.0346,,
1602,0.0345,,
1603,0.0343,,
1604,0.0342,,
1605,0.0340,,
1606,0.0339,,
1607,0.0337,,
1608,0.0336,,
1609,0.0335,,
1610,0.0333,,
1611,0.0332,,
1612,0.0330,,
1613,0.0329,,
1614,0.0328,,
1615,0.0326,,
1616,0.0325,,
1617,0.0323,,
1618,0.0322,,
1619,0.0321,,
1620,0.0319,,
1621,0.0318,,
1622,0.0317,,
1623,0.0315,,
1624,0.0314,,
1625,0.0313,,
1626,0.0311,,
1627,0.0310,,
1628,0.0308,,
1629,0.0307,,
1630,0.0306,,
1631,0.0305,,
1632,0.0303,,
1633,0.0302,,
1634,0.0301,,
1635,0.0299,,
1636,0.0298,,
1637,0.0297,,
1638,0.0295,,
1639,0.0294,,
1640,0.0293,,
1641,0.0291,,
1642,0.0290,,
1643,0.0289,,
1644,0.0288,,
1645,0.0286,,
1646,0.0285,,
1647,0.0284,,
1648,0.0283,,
1649,0.0281,,
1650,0.0280,,
1651,0.0279,,
1652,0.0278,,
1653,0.0276,,
1654,0.0275,,
1655,0.0274,,
1656,0.0273,,
1657,0.0271,,
1658,0.0270,,
1659,0.0269,,
1660,0.0268,,
1661,0.0267,,
1662,0.0265,,
1663,0.0264,,
1664,0.0263,,
1665,0.0262,,
1666,0.0261,,
1667,0.0260,,
1668,0.0258,,
1669,0.0257,,
1670,0.0256,,
1671,0.0255,,
1672,0.0254,,
1673,0.0253,,
1674,0.0251,,
1675,0.0250,,
1676,0.0249,,
1677,0.0248,,
1678,0.0247,,
1679,0.0246,,
1680,0.0245,,
1681,0.0244,,
1682,0.0242,,
1683,0.0241,,
1684,0.0240,,
1685,0.0239,,
1686,0.0238,,
1687,0.0237,,
1688,0.0236,,
1689,0.0235,,
1690,0.0234,,
1691,0.0233,,
1692,0.0232,,
1693,0.0230,,
1694,0.0229,,
1695,0.0228,,
1696,0.0227,,
1697,0.0226,,
1698,0.0225,,
1699,0.0224,,
1700,0.0223,,
1701,0.0222,,
1702,0.0221,,
1703,0.0220,,
1704,0.0219,,
1705,0.0218,,
1706,0.0217,,
1707,0.0216,,
1708,0.0215,,
1709,0.0214,,
1710,0.0213,,
1711,0.0212,,
1712,0.0211,,
1713,0.0210,,
1714,0.0209,,
1715,0.0208,,
1716,0.0207,,
1717,0.0206,,
1718,0.0205,,
1719,0.0204,,
1720,0.0204,,
1721,0.0203,,
1722,0.0202,,
1723,0.0201,,
1724,0.0200,,
1725,0.0199,,
1726,0.0198,,
1727,0.0197,,
1728,0.0196,,
1729,0.0195,,
1730,0.0194,,
1731,0.0193,,
1732,0.0193,,
1733,0.0192,,
1734,0.0191,,
1735,0.0190,,
1736,0.0189,,
1737,0.0188,,
1738,0.0187,,
1739,0.0187,,
1740,0.0186,,
1741,0.0185,,
1742,0.0184,,
1743,0.0183,,
1744,0.0182,,
1745,0.0182,,
1746,0.0181,,
1747,0.0180,,
1748,0.0179,,
1749,0.0178,,
1750,0.0177,,
1751,0.0177,,
1752,0.0176,,
1753,0.0175,,
1754,0.0174,,
1755,0.0174,,
1756,0.0173,,
1757,0.0172,,
1758,0.0171,,
1759,0.0170,,
1760,0.0170,,
1761,0.0169,,
1762,0.0168,,
1763,0.0167,,
1764,0.0167,,
1765,0.0166,,
1766,0.0165,,
1767,0.0164,,
1768,0.0164,,
1769,0.0163,,
1770,0.0162,,
1771,0.0162,,
1772,0.0161,,
1773,0.0160,,
1774,0.0159,,
1775,0.0159,,
1776,0.0158,,
1777,0.0157,,
1778,0.0157,,
1779,0.0156,,
1780,0.0155,,
1781,0.0155,,
1782,0.0154,,
1783,0.0153,,
1784,0.0153,,
1785,0.0152,,
1786,0.0151,,
1787,0.0151,,
1788,0.0150,,
1789,0.0149,,
1790,0.0149,,
1791,0.0148,,
1792,0.0147,,
1793,0.0147,,
1794,0.0146,,
1795,0.0145,,
1796,0.0145,,
1797,0.0144,,
1798,0.0144,,
1799,0.0143,,
1800,0.0142,,
1801,0.0142,,
1802,0.0141,,
1803,0.0141,,
1804,0.0140,,
1805,0.0139,,
1806,0.0139,,
1807,0.0138,,
1808,0.0138,,
1809,0.0137,,
1810,0.0136,,
1811,0.0136,,
1812,0.0135,,
1813,0.0135,,
1814,0.0134,,
1815,0.0134,,
1816,0.0133,,
1817,0.0132,,
1818,0.0132,,
1819,0.0131,,
1820,0.0131,,
1821,0.0130,,
1822,0.0130,,
1823,0.0129,,
1824,0.0129,,
1825,0.0128,,
1826,0.0128,,
1827,0.0127,,
1828,0.0126,,
1829,0.0126,,
1830,0.0125,,
1831,0.0125,,
1832,0.0124,,
1833,0.0124,,
1834,0.0123,,
1835,0.0123,,
1836,0.0122,,
1837,0.0122,,
1838,0.0121,,
1839,0.0121,,
1840,0.0120,,
1841,0.0120,,
1842,0.0119,,
1843,0.0119,,
1844,0.0118,,
1845,0.0118,,
1846,0.0117,,
1847,0.0117,,
1848,0.0116,,
1849,0.0116,,
1850,0.0115,,
1851,0.0115,,
1852,0.0114,,
1853,0.0114,,
1854,0.0114,,
1855,0.0113,,
1856,0.0113,,
1857,0.0112,,
1858,0.0112,,
1859,0.0111,,
1860,0.0111,,
1861,0.0110,,
1862,0.0110,,
1863,0.0109,,
1864,0.0109,,
1865,0.0108,,
1866,0.0108,,
1867,0.0108,,
1868,0.0107,,
1869,0.0107,,
1870,0.0106,,
1871,0.0106,,
1872,0.0105,,
1873,0.0105,,
1874,0.0104,,
1875,0.0104,,
1876,0.0104,,
1877,0.0103,,
1878,0.0103,,
1879,0.0102,,
1880,0.0102,,
1881,0.0101,,
1882,0.0101,,
1883,0.0100,,
1884,0.0100,,
1885,0.0100,,
1886,0.0099,,
1887,0.0099,,
1888,0.0098,,
1889,0.0098,,
1890,0.0098,,
1891,0.0097,,
1892,0.0097,,
1893,0.0096,,
1894,0.0096,,
1895,0.0095,,
1896,0.0095,,
1897,0.0095,,
1898,0.0094,,
1899,0.0094,,
1900,0.0093,,
1901,0.0093,,
1902,0.0093,,
1903,0.0092,,
1904,0.0092,,
1905,0.0091,,
1906,0.0091,,
1907,0.0090,,
1908,0.0090,,
1909,0.0090,,
1910,0.0089,,
1911,0.0089,,
1912,0.0088,,
1913,0.0088,,
1914,0.0088,,
1915,0.0087,,
1916,0.0087,,
1917,0.0086,,
1918,0.0086,,
1919,0.0086,,
1920,0.0085,,
1921,0.0085,,
1922,0.0084,,
1923,0.0084,,
1924,0.0084,,
1925,0.0083,,
1926,0.0083,,
1927,0.0082,,
1928,0.0082,,
1929,0.0082,,
1930,0.0081,,
1931,0.0081,,
1932,0.0081,,
1933,0.0080,,
1934,0.0080,,
1935,0.0079,,
1936,0.0079,,
1937,0.0079,,
1938,0.0078,,
1939,0.0078,,
1940,0.0077,,
1941,0.0077,,
1942,0.0077,,
1943,0.0076,,
1944,0.0076,,
1945,0.0075,,
1946,0.0075,,
1947,0.0075,,
1948,0.0074,,
1949,0.0074,,
1950,0.0074,,
1951,0.0073,,
1952,0.0073,,
1953,0.0072,,
1954,0.0072,,
1955,0.0072,,
1956,0.0071,,
1957,0.0071,,
1958,0.0071,,
1959,0.0070,,
1960,0.0070,,
1961,0.0069,,
1962,0.0069,,
1963,0.0069,,
1964,0.0068,,
1965,0.0068,,
1966,0.0067,,
1967,0.0067,,
1968,0.0067,,
1969,0.0066,,
1970,0.0066,,
1971,0.0066,,
1972,0.0065,,
1973,0.0065,,
1974,0.0065,,
1975,0.0064,,
1976,0.0064,,
1977,0.0063,,
1978,0.0063,,
1979,0.0063,,
1980,0.0062,,
1981,0.0062,,
1982,0.0062,,
1983,0.0061,,
1984,0.0061,,
1985,0.0060,,
1986,0.0060,,
1987,0.0060,,
1988,0.0059,,
1989,0.0059,,
1990,0.0059,,
1991,0.0058,,
1992,0.0058,,
1993,0.0058,,
1994,0.0057,,
1995,0.0057,,
1996,0.0056,,
1997,0.0056,,
1998,0.0056,,
1999,0.0055,,

[Histogram Data]
Binwidth,4
Diffusion Coefficient (E4 nm²/s), Concentration (E6 particles / ml),,
2.0,0.0000,,
6.0,0.0000,,
10.0,0.0000,,
14.0,0.0000,,
18.0,0.0000,,
22.0,0.0000,,
26.0,0.0000,,
30.0,0.0000,,
34.0,0.0000,,
38.0,0.0000,,
42.0,0.0000,,
46.0,0.0000,,
50.0,0.0000,,
54.0,0.0000,,
58.0,0.0000,,
62.0,0.0000,,
66.0,0.0000,,
70.0,0.0000,,
74.0,0.4687,,
78.0,0.9179,,
82.0,0.7812,,
86.0,0.0000,,
90.0,2.5585,,
94.0,1.7382,,
98.0,0.0000,,
102.0,1.2304,,
106.0,1.4062,,
110.0,2.0703,,
114.0,10.5466,,
118.0,10.8005,,
122.0,9.6482,,
126.0,2.1484,,
130.0,3.2421,,
134.0,2.8710,,
138.0,3.8280,,
142.0,1.7968,,
146.0,2.6562,,
150.0,2.2460,,
154.0,4.2186,,
158.0,11.5036,,
162.0,6.5428,,
166.0,3.8671,,
170.0,3.7304,,
174.0,3.3788,,
178.0,5.1561,,
182.0,3.8476,,
186.0,7.7928,,
190.0,4.2577,,
194.0,3.3788,,
198.0,5.3514,,
202.0,2.4609,,
206.0,6.9334,,
210.0,3.9257,,
214.0,3.5351,,
218.0,2.5781,,
222.0,4.7460,,
226.0,20.9956,,
230.0,6.7186,,
234.0,7.6170,,
238.0,4.1405,,
242.0,6.8748,,
246.0,8.4373,,
250.0,3.0077,,
254.0,3.4960,,
258.0,6.9139,,
262.0,4.1796,,
266.0,8.2420,,
270.0,5.0975,,
274.0,5.5858,,
278.0,5.8006,,
282.0,7.3826,,
286.0,6.9529,,
290.0,3.7694,,
294.0,5.2342,,
298.0,2.6757,,
302.0,8.1834,,
306.0,3.6327,,
310.0,7.3436,,
314.0,4.5311,,
318.0,3.5351,,
322.0,6.9529,,
326.0,6.4256,,
330.0,5.4686,,
334.0,5.0780,,
338.0,4.9608,,
342.0,5.4881,,
346.0,4.9022,,
350.0,8.0857,,
354.0,5.4491,,
358.0,6.9334,,
362.0,4.0038,,
366.0,2.8906,,
370.0,3.7694,,
374.0,3.5937,,
378.0,6.8748,,
382.0,3.9257,,
386.0,6.9920,,
390.0,4.6678,,
394.0,4.7655,,
398.0,7.0897,,
402.0,2.9296,,
406.0,4.5897,,
410.0,4.1210,,
414.0,6.3280,,
418.0,3.3788,,
422.0,6.4647,,
426.0,6.4647,,
430.0,8.0076,,
434.0,5.0780,,
438.0,5.0780,,
442.0,5.3124,,
446.0,3.8476,,
450.0,7.2264,,
454.0,4.4335,,
458.0,4.9413,,
462.0,8.3201,,
466.0,9.4529,,
470.0,5.9569,,
474.0,6.1912,,
478.0,9.0232,,
482.0,7.8318,,
486.0,4.9413,,
490.0,8.2224,,
494.0,3.9257,,
498.0,4.7069,,
502.0,4.7264,,
506.0,6.8553,,
510.0,6.6209,,
514.0,7.6756,,
518.0,8.9256,,
522.0,4.6483,,
526.0,3.0273,,
530.0,6.3280,,
534.0,7.0897,,
538.0,4.5116,,
542.0,4.1796,,
546.0,4.9022,,
550.0,4.2577,,
554.0,5.5467,,
558.0,5.2928,,
562.0,3.3984,,
566.0,7.6756,,
570.0,6.2108,,
574.0,5.3710,,
578.0,4.4725,,
582.0,5.0780,,
586.0,6.8748,,
590.0,3.5351,,
594.0,4.1796,,
598.0,5.1366,,
602.0,6.3280,,
606.0,5.0389,,
610.0,3.2812,,
614.0,5.1952,,
618.0,4.2186,,
622.0,4.2382,,
626.0,5.1561,,
630.0,6.8944,,
634.0,3.8866,,
638.0,4.4139,,
642.0,4.9022,,
646.0,6.2498,,
650.0,5.0194,,
654.0,6.9139,,
658.0,5.1952,,
662.0,3.1640,,
666.0,6.4256,,
670.0,4.2968,,
674.0,4.2186,,
678.0,3.3202,,
682.0,3.1054,,
686.0,4.9608,,
690.0,4.0038,,
694.0,3.3398,,
698.0,4.0233,,
702.0,4.1015,,
706.0,4.6874,,
710.0,1.9921,,
714.0,3.6523,,
718.0,4.7460,,
722.0,6.1131,,
726.0,2.1679,,
730.0,4.5116,,
734.0,2.4023,,
738.0,2.8515,,
742.0,3.9843,,
746.0,2.9687,,
750.0,4.5116,,
754.0,2.5195,,
758.0,4.2382,,
762.0,3.9257,,
766.0,1.7187,,
770.0,5.6834,,
774.0,2.0507,,
778.0,4.3749,,
782.0,5.0780,,
786.0,4.1015,,
790.0,1.8750,,
794.0,2.4413,,
798.0,3.6132,,
802.0,3.1640,,
806.0,2.0312,,
810.0,4.2968,,
814.0,1.3672,,
818.0,3.1054,,
822.0,2.1289,,
826.0,2.5976,,
830.0,1.6406,,
834.0,3.3202,,
838.0,2.3046,,
842.0,2.2851,,
846.0,3.0663,,
850.0,3.3007,,
854.0,1.5429,,
858.0,1.7773,,
862.0,1.7187,,
866.0,2.3046,,
870.0,1.9726,,
874.0,0.6250,,
878.0,2.8515,,
882.0,2.7343,,
886.0,3.8671,,
890.0,1.4257,,
894.0,2.1289,,
898.0,2.7734,,
902.0,3.2421,,
906.0,2.9882,,
910.0,1.9140,,
914.0,1.9140,,
918.0,1.6015,,
922.0,2.0898,,
926.0,1.8750,,
930.0,1.4062,,
934.0,2.1874,,
938.0,2.3437,,
942.0,1.6406,,
946.0,1.9335,,
950.0,1.0742,,
954.0,2.5585,,
958.0,0.8594,,
962.0,1.6406,,
966.0,2.1289,,
970.0,3.1054,,
974.0,3.2226,,
978.0,2.4609,,
982.0,1.7187,,
986.0,1.8554,,
990.0,1.5429,,
994.0,1.6211,,
998.0,1.9531,,
1002.0,2.2460,,
1006.0,1.5820,,
1010.0,2.4218,,
1014.0,1.0547,,
1018.0,1.5234,,
1022.0,1.5039,,
1026.0,1.2304,,
1030.0,1.8164,,
1034.0,0.8008,,
1038.0,1.5039,,
1042.0,0.6250,,
1046.0,1.3086,,
1050.0,1.8945,,
1054.0,1.9140,,
1058.0,1.7968,,
1062.0,1.5234,,
1066.0,1.1133,,
1070.0,0.3320,,
1074.0,0.7226,,
1078.0,1.5625,,
1082.0,1.5625,,
1086.0,1.6601,,
1090.0,0.7812,,
1094.0,1.4062,,
1098.0,0.6445,,
1102.0,1.9726,,
1106.0,0.7226,,
1110.0,0.5859,,
1114.0,0.8789,,
1118.0,0.4492,,
1122.0,0.1367,,
1126.0,0.3516,,
1130.0,1.0156,,
1134.0,0.9375,,
1138.0,0.4883,,
1142.0,0.2539,,
1146.0,0.9765,,
1150.0,1.2695,,
1154.0,0.2930,,
1158.0,1.2695,,
1162.0,0.2930,,
1166.0,0.5273,,
1170.0,1.0156,,
1174.0,0.5469,,
1178.0,0.6445,,
1182.0,0.4297,,
1186.0,0.8594,,
1190.0,0.7031,,
1194.0,0.7422,,
1198.0,0.4687,,
1202.0,0.5859,,
1206.0,0.7422,,
1210.0,0.4492,,
1214.0,0.7617,,
1218.0,0.4687,,
1222.0,0.9179,,
1226.0,0.2344,,
1230.0,0.5469,,
1234.0,0.6055,,
1238.0,0.0000,,
1242.0,0.2539,,
1246.0,0.9375,,
1250.0,0.2930,,
1254.0,0.6640,,
1258.0,0.3320,,
1262.0,0.4297,,
1266.0,0.9179,,
1270.0,0.6836,,
1274.0,0.7031,,
1278.0,0.6836,,
1282.0,0.7031,,
1286.0,0.5859,,
1290.0,0.0000,,
1294.0,0.0977,,
1298.0,0.5078,,
1302.0,0.4297,,
1306.0,0.5664,,
1310.0,0.5664,,
1314.0,0.6250,,
1318.0,0.1953,,
1322.0,0.8789,,
1326.0,0.8203,,
1330.0,0.1172,,
1334.0,1.1328,,
1338.0,0.7422,,
1342.0,0.5273,,
1346.0,0.4883,,
1350.0,0.6640,,
1354.0,0.5273,,
1358.0,0.3906,,
1362.0,0.2344,,
1366.0,0.5469,,
1370.0,0.2539,,
1374.0,0.6445,,
1378.0,0.2734,,
1382.0,0.0977,,
1386.0,0.0000,,
1390.0,0.3125,,
1394.0,0.2539,,
1398.0,0.6250,,
1402.0,0.2344,,
1406.0,0.0977,,
1410.0,0.4297,,
1414.0,0.4297,,
1418.0,0.0000,,
1422.0,0.2148,,
1426.0,0.4297,,
1430.0,0.1172,,
1434.0,0.1367,,
1438.0,0.0977,,
1442.0,0.4101,,
1446.0,0.0977,,
1450.0,0.7617,,
1454.0,0.0000,,
1458.0,0.0000,,
1462.0,0.1172,,
1466.0,0.4101,,
1470.0,0.4101,,
1474.0,0.1953,,
1478.0,0.0977,,
1482.0,0.3711,,
1486.0,0.1367,,
1490.0,0.0977,,
1494.0,0.3125,,
1498.0,0.0977,,
1502.0,0.1172,,
1506.0,0.0977,,
1510.0,0.0977,,
1514.0,0.0000,,
1518.0,0.2148,,
1522.0,0.0977,,
1526.0,0.4101,,
1530.0,0.5273,,
1534.0,0.0977,,
1538.0,0.1172,,
1542.0,0.0000,,
1546.0,0.2344,,
1550.0,0.1953,,
1554.0,0.1367,,
1558.0,0.3711,,
1562.0,0.0977,,
1566.0,0.2344,,
1570.0,0.4297,,
1574.0,0.0000,,
1578.0,0.2930,,
1582.0,0.2539,,
1586.0,0.2344,,
1590.0,0.0000,,
1594.0,0.1172,,
1598.0,0.1953,,
1602.0,0.2148,,
1606.0,0.0000,,
1610.0,0.1758,,
1614.0,0.0977,,
1618.0,0.1172,,
1622.0,0.0000,,
1626.0,0.0977,,
1630.0,0.2148,,
1634.0,0.0000,,
1638.0,0.0000,,
1642.0,0.1172,,
1646.0,0.1172,,
1650.0,0.0977,,
1654.0,0.0977,,
1658.0,0.0000,,
1662.0,0.0000,,
1666.0,0.2930,,
1670.0,0.1953,,
1674.0,0.1172,,
1678.0,0.2148,,
1682.0,0.0000,,
1686.0,0.0977,,
1690.0,0.1172,,
1694.0,0.0000,,
1698.0,0.0000,,
1702.0,0.0000,,
1706.0,0.0977,,
1710.0,0.0000,,
1714.0,0.1172,,
1718.0,0.1367,,
1722.0,0.1367,,
1726.0,0.2930,,
1730.0,0.0000,,
1734.0,0.0977,,
1738.0,0.0000,,
1742.0,0.0977,,
1746.0,0.0000,,
1750.0,0.0000,,
1754.0,0.0977,,
1758.0,0.0977,,
1762.0,0.0000,,
1766.0,0.2148,,
1770.0,0.0000,,
1774.0,0.0000,,
1778.0,0.0000,,
1782.0,0.0000,,
1786.0,0.0000,,
1790.0,0.1758,,
1794.0,0.0000,,
1798.0,0.0000,,
1802.0,0.0977,,
1806.0,0.1367,,
1810.0,0.0000,,
1814.0,0.0000,,
1818.0,0.0000,,
1822.0,0.0977,,
1826.0,0.0000,,
1830.0,0.0000,,
1834.0,0.0977,,
1838.0,0.0000,,
1842.0,0.0000,,
1846.0,0.0977,,
1850.0,0.0000,,
1854.0,0.0000,,
1858.0,0.0000,,
1862.0,0.0000,,
1866.0,0.0977,,
1870.0,0.0977,,
1874.0,0.0000,,
1878.0,0.0000,,
1882.0,0.1172,,
1886.0,0.0000,,
1890.0,0.1172,,
1894.0,0.0977,,
1898.0,0.1172,,
1902.0,0.0000,,
1906.0,0.0977,,
1910.0,0.1367,,
1914.0,0.0000,,
1918.0,0.0000,,
1922.0,0.1367,,
1926.0,0.0000,,
1930.0,0.0000,,
1934.0,0.0000,,
1938.0,0.0000,,
1942.0,0.0000,,
1946.0,0.0000,,
1950.0,0.0977,,
1954.0,0.0977,,
1958.0,0.1172,,
1962.0,0.1172,,
1966.0,0.0000,,
1970.0,0.0000,,
1974.0,0.0000,,
1978.0,0.0000,,
1982.0,0.0000,,
1986.0,0.0977,,
1990.0,0.0000,,
1994.0,0.0977,,
1998.0,0.0977,,

[Percentile Undersize]
Percentile,Diffusion Coefficient (E4 nm²/s),
0,53,
1,105,
2,114,
3,121,
4,129,
5,141,
6,151,
7,160,
8,169,
9,178,
10,187,
11,196,
12,205,
13,213,
14,220,
15,227,
16,233,
17,240,
18,246,
19,254,
20,261,
21,269,
22,277,
23,284,
24,292,
25,300,
26,308,
27,316,
28,324,
29,332,
30,341,
31,349,
32,357,
33,366,
34,374,
35,383,
36,391,
37,400,
38,408,
39,416,
40,424,
41,432,
42,440,
43,447,
44,454,
45,461,
46,468,
47,475,
48,483,
49,490,
50,497,
51,504,
52,511,
53,519,
54,526,
55,534,
56,542,
57,550,
58,559,
59,567,
60,575,
61,584,
62,593,
63,601,
64,610,
65,619,
66,628,
67,637,
68,647,
69,656,
70,666,
71,676,
72,686,
73,697,
74,708,
75,719,
76,731,
77,743,
78,756,
79,769,
80,783,
81,797,
82,812,
83,828,
84,845,
85,863,
86,882,
87,901,
88,922,
89,944,
90,967,
91,992,
92,1019,
93,1050,
94,1086,
95,1131,
96,1188,
97,1262,
98,1357,
99,1508,
100,1999,

