[Software Info]
Build,NTA 2.3 build 0033

[Sample Information]
Operator,""
Sample Description,"coffee"
Diluent,"aqua dest."
Concentration,""
Pre-treatmeant,""
Comments,"1ml Kaffee/9 ml dest. Wasser"

[Results Summary]
Total Frames,1800
Processed Frames,1800
Valid Tracks,1971
Overall Drift (nm/s),311.31
X-Drift (nm/s),-2.62
Y-Drift (nm/s),-311.29
Calibration (nm/pixel),166

Size Data - Volume Weighted,
Mode (nm),428.00
Mean (nm),438.39
Standard Deviation (nm),212.67
Size data - Model Fit,
Mean (nm),0.00
Standard Deviation (nm),0.00

User Line 1,0
User Line 2,0
Average # centres/frame,44.99
Average # particles/frame,33.55
Equivalent particle concentration (E8 particles/ml),5.08
Selected average # particles/frame,0.00
Selected equivalent particle concentration (E8 particles/ml),0.00

[Settings],
Background Extract,On
Brightness,0
Gain,1.00
Blur Size,Auto,
Detection Threshold Type,Multi,
Detection Threshold,31
Min Track Length,Auto
Min Expected Size (nm),Auto

[Measurement Conditions]
Camera Type,CCD
Camera Shutter (ms),6.44
Camera Gain,540
Frame rate (fps),30.00
Temperature (°C),23.30
Viscosity (cP),0.924

[Warnings]
Low Completed Tracks,No
High Noise,0 frames
Auto max jump,Successful
Drift off,No
Settings Changed Whilst Processing,No
Vibration detected,Vibration detected >~10% error
Additional Errors,None

[Graph Data]
Particle Size (nm),Volume Concentration (E12 nm³ / ml),,
0,0.0000,,
1,0.0000,,
2,0.0000,,
3,0.0000,,
4,0.0000,,
5,0.0000,,
6,0.0000,,
7,0.0000,,
8,0.0000,,
9,0.0000,,
10,0.0000,,
11,0.0000,,
12,0.0000,,
13,0.0000,,
14,0.0000,,
15,0.0000,,
16,0.0000,,
17,0.0000,,
18,0.0000,,
19,0.0000,,
20,0.0000,,
21,0.0000,,
22,0.0000,,
23,0.0000,,
24,0.0000,,
25,0.0000,,
26,0.0000,,
27,0.0000,,
28,0.0000,,
29,0.0000,,
30,0.0000,,
31,0.0000,,
32,0.0000,,
33,0.0000,,
34,0.0000,,
35,0.0000,,
36,0.0001,,
37,0.0002,,
38,0.0002,,
39,0.0004,,
40,0.0005,,
41,0.0006,,
42,0.0007,,
43,0.0009,,
44,0.0011,,
45,0.0016,,
46,0.0022,,
47,0.0030,,
48,0.0039,,
49,0.0051,,
50,0.0064,,
51,0.0080,,
52,0.0098,,
53,0.0121,,
54,0.0149,,
55,0.0184,,
56,0.0226,,
57,0.0275,,
58,0.0331,,
59,0.0393,,
60,0.0459,,
61,0.0528,,
62,0.0596,,
63,0.0661,,
64,0.0721,,
65,0.0776,,
66,0.0825,,
67,0.0870,,
68,0.0913,,
69,0.0955,,
70,0.1001,,
71,0.1054,,
72,0.1116,,
73,0.1189,,
74,0.1275,,
75,0.1376,,
76,0.1491,,
77,0.1621,,
78,0.1765,,
79,0.1925,,
80,0.2099,,
81,0.2286,,
82,0.2487,,
83,0.2701,,
84,0.2927,,
85,0.3165,,
86,0.3414,,
87,0.3675,,
88,0.3947,,
89,0.4231,,
90,0.4528,,
91,0.4840,,
92,0.5167,,
93,0.5512,,
94,0.5877,,
95,0.6262,,
96,0.6670,,
97,0.7102,,
98,0.7559,,
99,0.8043,,
100,0.8552,,
101,0.9089,,
102,0.9652,,
103,1.0241,,
104,1.0855,,
105,1.1491,,
106,1.2147,,
107,1.2820,,
108,1.3506,,
109,1.4201,,
110,1.4903,,
111,1.5605,,
112,1.6303,,
113,1.6995,,
114,1.7676,,
115,1.8347,,
116,1.9003,,
117,1.9645,,
118,2.0275,,
119,2.0893,,
120,2.1502,,
121,2.2107,,
122,2.2710,,
123,2.3317,,
124,2.3933,,
125,2.4561,,
126,2.5209,,
127,2.5878,,
128,2.6574,,
129,2.7300,,
130,2.8060,,
131,2.8852,,
132,2.9684,,
133,3.0549,,
134,3.1448,,
135,3.2378,,
136,3.3337,,
137,3.4322,,
138,3.5329,,
139,3.6352,,
140,3.7390,,
141,3.8438,,
142,3.9493,,
143,4.0553,,
144,4.1614,,
145,4.2676,,
146,4.3744,,
147,4.4816,,
148,4.5895,,
149,4.6987,,
150,4.8096,,
151,4.9228,,
152,5.0389,,
153,5.1584,,
154,5.2819,,
155,5.4101,,
156,5.5433,,
157,5.6821,,
158,5.8264,,
159,5.9765,,
160,6.1322,,
161,6.2935,,
162,6.4601,,
163,6.6313,,
164,6.8067,,
165,6.9852,,
166,7.1663,,
167,7.3488,,
168,7.5319,,
169,7.7142,,
170,7.8949,,
171,8.0727,,
172,8.2470,,
173,8.4165,,
174,8.5803,,
175,8.7375,,
176,8.8878,,
177,9.0301,,
178,9.1641,,
179,9.2897,,
180,9.4063,,
181,9.5139,,
182,9.6119,,
183,9.7005,,
184,9.7799,,
185,9.8500,,
186,9.9108,,
187,9.9626,,
188,10.0053,,
189,10.0389,,
190,10.0638,,
191,10.0801,,
192,10.0878,,
193,10.0875,,
194,10.0793,,
195,10.0638,,
196,10.0406,,
197,10.0107,,
198,9.9741,,
199,9.9319,,
200,9.8844,,
201,9.8327,,
202,9.7774,,
203,9.7195,,
204,9.6599,,
205,9.5997,,
206,9.5400,,
207,9.4819,,
208,9.4265,,
209,9.3747,,
210,9.3275,,
211,9.2861,,
212,9.2513,,
213,9.2240,,
214,9.2051,,
215,9.1948,,
216,9.1937,,
217,9.2023,,
218,9.2206,,
219,9.2488,,
220,9.2868,,
221,9.3343,,
222,9.3912,,
223,9.4571,,
224,9.5312,,
225,9.6129,,
226,9.7018,,
227,9.7969,,
228,9.8980,,
229,10.0034,,
230,10.1127,,
231,10.2251,,
232,10.3398,,
233,10.4559,,
234,10.5728,,
235,10.6894,,
236,10.8052,,
237,10.9197,,
238,11.0320,,
239,11.1418,,
240,11.2487,,
241,11.3522,,
242,11.4521,,
243,11.5479,,
244,11.6395,,
245,11.7267,,
246,11.8093,,
247,11.8877,,
248,11.9613,,
249,12.0303,,
250,12.0945,,
251,12.1539,,
252,12.2087,,
253,12.2587,,
254,12.3041,,
255,12.3450,,
256,12.3814,,
257,12.4132,,
258,12.4405,,
259,12.4634,,
260,12.4820,,
261,12.4967,,
262,12.5070,,
263,12.5134,,
264,12.5161,,
265,12.5150,,
266,12.5103,,
267,12.5024,,
268,12.4911,,
269,12.4769,,
270,12.4601,,
271,12.4408,,
272,12.4192,,
273,12.3956,,
274,12.3702,,
275,12.3434,,
276,12.3154,,
277,12.2864,,
278,12.2569,,
279,12.2267,,
280,12.1965,,
281,12.1661,,
282,12.1358,,
283,12.1059,,
284,12.0763,,
285,12.0472,,
286,12.0187,,
287,11.9907,,
288,11.9630,,
289,11.9360,,
290,11.9094,,
291,11.8830,,
292,11.8568,,
293,11.8308,,
294,11.8050,,
295,11.7788,,
296,11.7520,,
297,11.7244,,
298,11.6962,,
299,11.6671,,
300,11.6368,,
301,11.6051,,
302,11.5719,,
303,11.5370,,
304,11.5005,,
305,11.4622,,
306,11.4218,,
307,11.3795,,
308,11.3351,,
309,11.2888,,
310,11.2405,,
311,11.1903,,
312,11.1380,,
313,11.0852,,
314,11.0300,,
315,10.9733,,
316,10.9160,,
317,10.8570,,
318,10.7972,,
319,10.7367,,
320,10.6758,,
321,10.6145,,
322,10.5533,,
323,10.4924,,
324,10.4319,,
325,10.3723,,
326,10.3136,,
327,10.2562,,
328,10.2000,,
329,10.1468,,
330,10.0942,,
331,10.0434,,
332,9.9947,,
333,9.9483,,
334,9.9040,,
335,9.8620,,
336,9.8228,,
337,9.7862,,
338,9.7519,,
339,9.7204,,
340,9.6915,,
341,9.6655,,
342,9.6421,,
343,9.6211,,
344,9.6026,,
345,9.5866,,
346,9.5729,,
347,9.5617,,
348,9.5525,,
349,9.5454,,
350,9.5405,,
351,9.5375,,
352,9.5363,,
353,9.5369,,
354,9.5392,,
355,9.5431,,
356,9.5486,,
357,9.5556,,
358,9.5640,,
359,9.5736,,
360,9.5849,,
361,9.5975,,
362,9.6114,,
363,9.6265,,
364,9.6431,,
365,9.6610,,
366,9.6805,,
367,9.7012,,
368,9.7233,,
369,9.7469,,
370,9.7723,,
371,9.7998,,
372,9.8285,,
373,9.8591,,
374,9.8919,,
375,9.9265,,
376,9.9631,,
377,10.0020,,
378,10.0429,,
379,10.0862,,
380,10.1319,,
381,10.1799,,
382,10.2304,,
383,10.2833,,
384,10.3387,,
385,10.3967,,
386,10.4570,,
387,10.5199,,
388,10.5853,,
389,10.6531,,
390,10.7232,,
391,10.7956,,
392,10.8701,,
393,10.9465,,
394,11.0250,,
395,11.1051,,
396,11.1869,,
397,11.2701,,
398,11.3549,,
399,11.4405,,
400,11.5269,,
401,11.6138,,
402,11.7010,,
403,11.7884,,
404,11.8756,,
405,11.9622,,
406,12.0481,,
407,12.1331,,
408,12.2168,,
409,12.2989,,
410,12.3790,,
411,12.4570,,
412,12.5326,,
413,12.6054,,
414,12.6751,,
415,12.7414,,
416,12.8041,,
417,12.8629,,
418,12.9176,,
419,12.9679,,
420,13.0138,,
421,13.0546,,
422,13.0904,,
423,13.1209,,
424,13.1459,,
425,13.1654,,
426,13.1791,,
427,13.1870,,
428,13.1892,,
429,13.1850,,
430,13.1746,,
431,13.1581,,
432,13.1354,,
433,13.1066,,
434,13.0714,,
435,13.0302,,
436,12.9828,,
437,12.9294,,
438,12.8701,,
439,12.8049,,
440,12.7340,,
441,12.6576,,
442,12.5758,,
443,12.4886,,
444,12.3965,,
445,12.2997,,
446,12.1984,,
447,12.0928,,
448,11.9832,,
449,11.8697,,
450,11.7525,,
451,11.6321,,
452,11.5087,,
453,11.3828,,
454,11.2543,,
455,11.1236,,
456,10.9913,,
457,10.8573,,
458,10.7223,,
459,10.5863,,
460,10.4495,,
461,10.3124,,
462,10.1754,,
463,10.0384,,
464,9.9018,,
465,9.7660,,
466,9.6310,,
467,9.4969,,
468,9.3647,,
469,9.2339,,
470,9.1049,,
471,8.9777,,
472,8.8527,,
473,8.7301,,
474,8.6098,,
475,8.4920,,
476,8.3768,,
477,8.2644,,
478,8.1547,,
479,8.0479,,
480,7.9440,,
481,7.8431,,
482,7.7452,,
483,7.6503,,
484,7.5584,,
485,7.4694,,
486,7.3835,,
487,7.3006,,
488,7.2205,,
489,7.1433,,
490,7.0689,,
491,6.9972,,
492,6.9283,,
493,6.8620,,
494,6.7981,,
495,6.7373,,
496,6.6782,,
497,6.6215,,
498,6.5669,,
499,6.5145,,
500,6.4639,,
501,6.4153,,
502,6.3685,,
503,6.3233,,
504,6.2798,,
505,6.2378,,
506,6.1971,,
507,6.1579,,
508,6.1199,,
509,6.0830,,
510,6.0471,,
511,6.0126,,
512,5.9791,,
513,5.9465,,
514,5.9147,,
515,5.8838,,
516,5.8537,,
517,5.8243,,
518,5.7957,,
519,5.7678,,
520,5.7405,,
521,5.7139,,
522,5.6879,,
523,5.6626,,
524,5.6379,,
525,5.6139,,
526,5.5903,,
527,5.5674,,
528,5.5451,,
529,5.5235,,
530,5.5024,,
531,5.4820,,
532,5.4622,,
533,5.4431,,
534,5.4247,,
535,5.4069,,
536,5.3899,,
537,5.3736,,
538,5.3579,,
539,5.3431,,
540,5.3288,,
541,5.3155,,
542,5.3025,,
543,5.2909,,
544,5.2800,,
545,5.2693,,
546,5.2601,,
547,5.2517,,
548,5.2441,,
549,5.2373,,
550,5.2312,,
551,5.2259,,
552,5.2214,,
553,5.2177,,
554,5.2148,,
555,5.2126,,
556,5.2112,,
557,5.2104,,
558,5.2104,,
559,5.2110,,
560,5.2123,,
561,5.2142,,
562,5.2166,,
563,5.2196,,
564,5.2231,,
565,5.2277,,
566,5.2323,,
567,5.2373,,
568,5.2415,,
569,5.2475,,
570,5.2538,,
571,5.2604,,
572,5.2672,,
573,5.2743,,
574,5.2815,,
575,5.2889,,
576,5.2964,,
577,5.3040,,
578,5.3116,,
579,5.3192,,
580,5.3268,,
581,5.3344,,
582,5.3418,,
583,5.3491,,
584,5.3563,,
585,5.3633,,
586,5.3701,,
587,5.3766,,
588,5.3829,,
589,5.3889,,
590,5.3945,,
591,5.3998,,
592,5.4048,,
593,5.4094,,
594,5.4136,,
595,5.4173,,
596,5.4206,,
597,5.4234,,
598,5.4258,,
599,5.4277,,
600,5.4290,,
601,5.4298,,
602,5.4301,,
603,5.4299,,
604,5.4291,,
605,5.4278,,
606,5.4258,,
607,5.4233,,
608,5.4203,,
609,5.4165,,
610,5.4122,,
611,5.4074,,
612,5.4019,,
613,5.3957,,
614,5.3890,,
615,5.3816,,
616,5.3736,,
617,5.3650,,
618,5.3558,,
619,5.3459,,
620,5.3354,,
621,5.3243,,
622,5.3126,,
623,5.3001,,
624,5.2872,,
625,5.2736,,
626,5.2593,,
627,5.2445,,
628,5.2291,,
629,5.2129,,
630,5.1963,,
631,5.1788,,
632,5.1610,,
633,5.1426,,
634,5.1235,,
635,5.1043,,
636,5.0841,,
637,5.0634,,
638,5.0421,,
639,5.0202,,
640,4.9978,,
641,4.9749,,
642,4.9511,,
643,4.9271,,
644,4.9027,,
645,4.8777,,
646,4.8523,,
647,4.8262,,
648,4.7998,,
649,4.7729,,
650,4.7456,,
651,4.7179,,
652,4.6897,,
653,4.6612,,
654,4.6323,,
655,4.6030,,
656,4.5733,,
657,4.5434,,
658,4.5130,,
659,4.4824,,
660,4.4514,,
661,4.4202,,
662,4.3887,,
663,4.3570,,
664,4.3250,,
665,4.2928,,
666,4.2604,,
667,4.2278,,
668,4.1950,,
669,4.1621,,
670,4.1291,,
671,4.0960,,
672,4.0627,,
673,4.0294,,
674,3.9961,,
675,3.9627,,
676,3.9293,,
677,3.8959,,
678,3.8625,,
679,3.8291,,
680,3.7958,,
681,3.7625,,
682,3.7294,,
683,3.6963,,
684,3.6634,,
685,3.6305,,
686,3.5978,,
687,3.5652,,
688,3.5329,,
689,3.5008,,
690,3.4689,,
691,3.4373,,
692,3.4059,,
693,3.3748,,
694,3.3439,,
695,3.3133,,
696,3.2830,,
697,3.2530,,
698,3.2233,,
699,3.1940,,
700,3.1650,,
701,3.1363,,
702,3.1080,,
703,3.0801,,
704,3.0525,,
705,3.0253,,
706,2.9985,,
707,2.9721,,
708,2.9461,,
709,2.9205,,
710,2.8953,,
711,2.8706,,
712,2.8462,,
713,2.8221,,
714,2.7987,,
715,2.7756,,
716,2.7529,,
717,2.7307,,
718,2.7089,,
719,2.6876,,
720,2.6666,,
721,2.6461,,
722,2.6260,,
723,2.6063,,
724,2.5870,,
725,2.5678,,
726,2.5494,,
727,2.5314,,
728,2.5138,,
729,2.4970,,
730,2.4802,,
731,2.4637,,
732,2.4476,,
733,2.4319,,
734,2.4165,,
735,2.4015,,
736,2.3868,,
737,2.3725,,
738,2.3585,,
739,2.3444,,
740,2.3310,,
741,2.3179,,
742,2.3051,,
743,2.2926,,
744,2.2804,,
745,2.2684,,
746,2.2566,,
747,2.2451,,
748,2.2338,,
749,2.2228,,
750,2.2119,,
751,2.2013,,
752,2.1908,,
753,2.1805,,
754,2.1704,,
755,2.1604,,
756,2.1506,,
757,2.1409,,
758,2.1314,,
759,2.1220,,
760,2.1127,,
761,2.1035,,
762,2.0945,,
763,2.0855,,
764,2.0766,,
765,2.0677,,
766,2.0590,,
767,2.0503,,
768,2.0417,,
769,2.0331,,
770,2.0246,,
771,2.0161,,
772,2.0075,,
773,1.9989,,
774,1.9906,,
775,1.9822,,
776,1.9739,,
777,1.9655,,
778,1.9572,,
779,1.9489,,
780,1.9406,,
781,1.9324,,
782,1.9240,,
783,1.9157,,
784,1.9074,,
785,1.8991,,
786,1.8909,,
787,1.8826,,
788,1.8743,,
789,1.8661,,
790,1.8578,,
791,1.8494,,
792,1.8412,,
793,1.8329,,
794,1.8247,,
795,1.8165,,
796,1.8083,,
797,1.8000,,
798,1.7918,,
799,1.7837,,
800,1.7755,,
801,1.7674,,
802,1.7594,,
803,1.7514,,
804,1.7434,,
805,1.7354,,
806,1.7275,,
807,1.7196,,
808,1.7118,,
809,1.7038,,
810,1.6961,,
811,1.6885,,
812,1.6809,,
813,1.6734,,
814,1.6659,,
815,1.6586,,
816,1.6512,,
817,1.6440,,
818,1.6368,,
819,1.6298,,
820,1.6229,,
821,1.6160,,
822,1.6093,,
823,1.6026,,
824,1.5960,,
825,1.5896,,
826,1.5832,,
827,1.5770,,
828,1.5708,,
829,1.5648,,
830,1.5589,,
831,1.5530,,
832,1.5473,,
833,1.5418,,
834,1.5363,,
835,1.5309,,
836,1.5257,,
837,1.5206,,
838,1.5156,,
839,1.5107,,
840,1.5060,,
841,1.5013,,
842,1.4968,,
843,1.4924,,
844,1.4881,,
845,1.4839,,
846,1.4799,,
847,1.4760,,
848,1.4721,,
849,1.4684,,
850,1.4648,,
851,1.4614,,
852,1.4580,,
853,1.4548,,
854,1.4511,,
855,1.4481,,
856,1.4452,,
857,1.4424,,
858,1.4398,,
859,1.4372,,
860,1.4347,,
861,1.4323,,
862,1.4301,,
863,1.4279,,
864,1.4258,,
865,1.4238,,
866,1.4219,,
867,1.4201,,
868,1.4184,,
869,1.4168,,
870,1.4153,,
871,1.4139,,
872,1.4125,,
873,1.4113,,
874,1.4101,,
875,1.4090,,
876,1.4080,,
877,1.4071,,
878,1.4063,,
879,1.4056,,
880,1.4049,,
881,1.4044,,
882,1.4039,,
883,1.4035,,
884,1.4032,,
885,1.4030,,
886,1.4028,,
887,1.4028,,
888,1.4028,,
889,1.4030,,
890,1.4032,,
891,1.4035,,
892,1.4038,,
893,1.4043,,
894,1.4049,,
895,1.4055,,
896,1.4063,,
897,1.4071,,
898,1.4080,,
899,1.4090,,
900,1.4101,,
901,1.4113,,
902,1.4126,,
903,1.4139,,
904,1.4154,,
905,1.4169,,
906,1.4186,,
907,1.4203,,
908,1.4219,,
909,1.4239,,
910,1.4259,,
911,1.4280,,
912,1.4302,,
913,1.4325,,
914,1.4349,,
915,1.4373,,
916,1.4399,,
917,1.4425,,
918,1.4453,,
919,1.4481,,
920,1.4510,,
921,1.4539,,
922,1.4570,,
923,1.4601,,
924,1.4634,,
925,1.4666,,
926,1.4700,,
927,1.4734,,
928,1.4769,,
929,1.4805,,
930,1.4841,,
931,1.4878,,
932,1.4916,,
933,1.4953,,
934,1.4992,,
935,1.5031,,
936,1.5070,,
937,1.5110,,
938,1.5150,,
939,1.5190,,
940,1.5231,,
941,1.5272,,
942,1.5313,,
943,1.5354,,
944,1.5395,,
945,1.5436,,
946,1.5477,,
947,1.5518,,
948,1.5559,,
949,1.5599,,
950,1.5639,,
951,1.5679,,
952,1.5719,,
953,1.5758,,
954,1.5797,,
955,1.5835,,
956,1.5872,,
957,1.5909,,
958,1.5945,,
959,1.5980,,
960,1.6014,,
961,1.6048,,
962,1.6080,,
963,1.6111,,
964,1.6142,,
965,1.6170,,
966,1.6198,,
967,1.6224,,
968,1.6249,,
969,1.6273,,
970,1.6295,,
971,1.6315,,
972,1.6334,,
973,1.6351,,
974,1.6367,,
975,1.6380,,
976,1.6388,,
977,1.6398,,
978,1.6406,,
979,1.6413,,
980,1.6417,,
981,1.6419,,
982,1.6418,,
983,1.6416,,
984,1.6411,,
985,1.6405,,
986,1.6395,,
987,1.6384,,
988,1.6370,,
989,1.6353,,
990,1.6334,,
991,1.6313,,
992,1.6289,,
993,1.6263,,
994,1.6234,,
995,1.6202,,
996,1.6168,,
997,1.6131,,
998,1.6092,,
999,1.6050,,
1000,1.6005,,
1001,1.5958,,
1002,1.5908,,
1003,1.5855,,
1004,1.5800,,
1005,1.5742,,
1006,1.5682,,
1007,1.5619,,
1008,1.5553,,
1009,1.5484,,
1010,1.5413,,
1011,1.5340,,
1012,1.5264,,
1013,1.5185,,
1014,1.5104,,
1015,1.5021,,
1016,1.4934,,
1017,1.4846,,
1018,1.4755,,
1019,1.4662,,
1020,1.4567,,
1021,1.4469,,
1022,1.4369,,
1023,1.4267,,
1024,1.4162,,
1025,1.4056,,
1026,1.3947,,
1027,1.3837,,
1028,1.3724,,
1029,1.3610,,
1030,1.3494,,
1031,1.3376,,
1032,1.3256,,
1033,1.3135,,
1034,1.3012,,
1035,1.2887,,
1036,1.2761,,
1037,1.2633,,
1038,1.2504,,
1039,1.2374,,
1040,1.2243,,
1041,1.2110,,
1042,1.1976,,
1043,1.1841,,
1044,1.1705,,
1045,1.1568,,
1046,1.1431,,
1047,1.1292,,
1048,1.1153,,
1049,1.1013,,
1050,1.0872,,
1051,1.0731,,
1052,1.0589,,
1053,1.0447,,
1054,1.0305,,
1055,1.0162,,
1056,1.0019,,
1057,0.9876,,
1058,0.9733,,
1059,0.9590,,
1060,0.9446,,
1061,0.9303,,
1062,0.9160,,
1063,0.9017,,
1064,0.8875,,
1065,0.8733,,
1066,0.8591,,
1067,0.8449,,
1068,0.8308,,
1069,0.8168,,
1070,0.8028,,
1071,0.7889,,
1072,0.7750,,
1073,0.7612,,
1074,0.7475,,
1075,0.7339,,
1076,0.7204,,
1077,0.7069,,
1078,0.6936,,
1079,0.6803,,
1080,0.6672,,
1081,0.6541,,
1082,0.6412,,
1083,0.6284,,
1084,0.6157,,
1085,0.6031,,
1086,0.5907,,
1087,0.5783,,
1088,0.5661,,
1089,0.5541,,
1090,0.5421,,
1091,0.5304,,
1092,0.5187,,
1093,0.5072,,
1094,0.4958,,
1095,0.4846,,
1096,0.4732,,
1097,0.4623,,
1098,0.4515,,
1099,0.4409,,
1100,0.4305,,
1101,0.4202,,
1102,0.4100,,
1103,0.4000,,
1104,0.3902,,
1105,0.3805,,
1106,0.3710,,
1107,0.3616,,
1108,0.3524,,
1109,0.3433,,
1110,0.3344,,
1111,0.3257,,
1112,0.3171,,
1113,0.3086,,
1114,0.3004,,
1115,0.2922,,
1116,0.2843,,
1117,0.2765,,
1118,0.2688,,
1119,0.2613,,
1120,0.2539,,
1121,0.2467,,
1122,0.2397,,
1123,0.2328,,
1124,0.2260,,
1125,0.2194,,
1126,0.2129,,
1127,0.2066,,
1128,0.2004,,
1129,0.1944,,
1130,0.1885,,
1131,0.1827,,
1132,0.1771,,
1133,0.1716,,
1134,0.1663,,
1135,0.1610,,
1136,0.1559,,
1137,0.1510,,
1138,0.1461,,
1139,0.1414,,
1140,0.1368,,
1141,0.1323,,
1142,0.1279,,
1143,0.1237,,
1144,0.1195,,
1145,0.1155,,
1146,0.1116,,
1147,0.1078,,
1148,0.1041,,
1149,0.1005,,
1150,0.0970,,
1151,0.0936,,
1152,0.0903,,
1153,0.0871,,
1154,0.0840,,
1155,0.0810,,
1156,0.0781,,
1157,0.0753,,
1158,0.0725,,
1159,0.0698,,
1160,0.0673,,
1161,0.0648,,
1162,0.0623,,
1163,0.0600,,
1164,0.0577,,
1165,0.0555,,
1166,0.0534,,
1167,0.0513,,
1168,0.0494,,
1169,0.0474,,
1170,0.0456,,
1171,0.0438,,
1172,0.0421,,
1173,0.0404,,
1174,0.0388,,
1175,0.0372,,
1176,0.0357,,
1177,0.0343,,
1178,0.0329,,
1179,0.0315,,
1180,0.0302,,
1181,0.0289,,
1182,0.0277,,
1183,0.0266,,
1184,0.0255,,
1185,0.0244,,
1186,0.0233,,
1187,0.0223,,
1188,0.0214,,
1189,0.0204,,
1190,0.0196,,
1191,0.0187,,
1192,0.0179,,
1193,0.0171,,
1194,0.0163,,
1195,0.0156,,
1196,0.0149,,
1197,0.0142,,
1198,0.0136,,
1199,0.0130,,
1200,0.0124,,
1201,0.0118,,
1202,0.0113,,
1203,0.0107,,
1204,0.0102,,
1205,0.0098,,
1206,0.0093,,
1207,0.0089,,
1208,0.0084,,
1209,0.0080,,
1210,0.0077,,
1211,0.0073,,
1212,0.0069,,
1213,0.0066,,
1214,0.0063,,
1215,0.0060,,
1216,0.0057,,
1217,0.0054,,
1218,0.0051,,
1219,0.0049,,
1220,0.0046,,
1221,0.0044,,
1222,0.0042,,
1223,0.0040,,
1224,0.0038,,
1225,0.0036,,
1226,0.0034,,
1227,0.0032,,
1228,0.0030,,
1229,0.0029,,
1230,0.0027,,
1231,0.0026,,
1232,0.0025,,
1233,0.0023,,
1234,0.0022,,
1235,0.0021,,
1236,0.0020,,
1237,0.0019,,
1238,0.0018,,
1239,0.0017,,
1240,0.0016,,
1241,0.0015,,
1242,0.0014,,
1243,0.0013,,
1244,0.0013,,
1245,0.0012,,
1246,0.0011,,
1247,0.0011,,
1248,0.0010,,
1249,0.0009,,
1250,0.0009,,
1251,0.0008,,
1252,0.0008,,
1253,0.0008,,
1254,0.0007,,
1255,0.0007,,
1256,0.0006,,
1257,0.0006,,
1258,0.0006,,
1259,0.0005,,
1260,0.0000,,
1261,0.0000,,
1262,0.0000,,
1263,0.0000,,
1264,0.0000,,
1265,0.0000,,
1266,0.0000,,
1267,0.0000,,
1268,0.0000,,
1269,0.0000,,
1270,0.0000,,
1271,0.0000,,
1272,0.0000,,
1273,0.0000,,
1274,0.0000,,
1275,0.0000,,
1276,0.0000,,
1277,0.0000,,
1278,0.0000,,
1279,0.0000,,
1280,0.0000,,
1281,0.0000,,
1282,0.0000,,
1283,0.0000,,
1284,0.0000,,
1285,0.0000,,
1286,0.0000,,
1287,0.0000,,
1288,0.0000,,
1289,0.0000,,
1290,0.0000,,
1291,0.0000,,
1292,0.0000,,
1293,0.0000,,
1294,0.0000,,
1295,0.0000,,
1296,0.0000,,
1297,0.0000,,
1298,0.0000,,
1299,0.0000,,
1300,0.0000,,
1301,0.0000,,
1302,0.0000,,
1303,0.0000,,
1304,0.0000,,
1305,0.0000,,
1306,0.0000,,
1307,0.0000,,
1308,0.0000,,
1309,0.0000,,
1310,0.0000,,
1311,0.0000,,
1312,0.0000,,
1313,0.0000,,
1314,0.0000,,
1315,0.0000,,
1316,0.0000,,
1317,0.0000,,
1318,0.0000,,
1319,0.0000,,
1320,0.0000,,
1321,0.0000,,
1322,0.0000,,
1323,0.0000,,
1324,0.0000,,
1325,0.0000,,
1326,0.0000,,
1327,0.0000,,
1328,0.0000,,
1329,0.0000,,
1330,0.0000,,
1331,0.0000,,
1332,0.0000,,
1333,0.0000,,
1334,0.0000,,
1335,0.0000,,
1336,0.0000,,
1337,0.0000,,
1338,0.0000,,
1339,0.0000,,
1340,0.0000,,
1341,0.0000,,
1342,0.0000,,
1343,0.0000,,
1344,0.0000,,
1345,0.0000,,
1346,0.0000,,
1347,0.0000,,
1348,0.0000,,
1349,0.0000,,
1350,0.0000,,
1351,0.0000,,
1352,0.0000,,
1353,0.0000,,
1354,0.0000,,
1355,0.0000,,
1356,0.0000,,
1357,0.0000,,
1358,0.0000,,
1359,0.0000,,
1360,0.0000,,
1361,0.0000,,
1362,0.0000,,
1363,0.0000,,
1364,0.0000,,
1365,0.0000,,
1366,0.0000,,
1367,0.0000,,
1368,0.0000,,
1369,0.0000,,
1370,0.0000,,
1371,0.0000,,
1372,0.0000,,
1373,0.0000,,
1374,0.0000,,
1375,0.0000,,
1376,0.0000,,
1377,0.0000,,
1378,0.0000,,
1379,0.0000,,
1380,0.0000,,
1381,0.0000,,
1382,0.0000,,
1383,0.0000,,
1384,0.0000,,
1385,0.0000,,
1386,0.0000,,
1387,0.0000,,
1388,0.0000,,
1389,0.0000,,
1390,0.0000,,
1391,0.0000,,
1392,0.0000,,
1393,0.0000,,
1394,0.0000,,
1395,0.0000,,
1396,0.0000,,
1397,0.0000,,
1398,0.0000,,
1399,0.0000,,
1400,0.0000,,
1401,0.0000,,
1402,0.0000,,
1403,0.0000,,
1404,0.0000,,
1405,0.0000,,
1406,0.0000,,
1407,0.0000,,
1408,0.0000,,
1409,0.0000,,
1410,0.0000,,
1411,0.0000,,
1412,0.0000,,
1413,0.0000,,
1414,0.0000,,
1415,0.0000,,
1416,0.0000,,
1417,0.0000,,
1418,0.0000,,
1419,0.0000,,
1420,0.0000,,
1421,0.0000,,
1422,0.0000,,
1423,0.0000,,
1424,0.0000,,
1425,0.0000,,
1426,0.0000,,
1427,0.0000,,
1428,0.0000,,
1429,0.0000,,
1430,0.0000,,
1431,0.0000,,
1432,0.0000,,
1433,0.0000,,
1434,0.0000,,
1435,0.0000,,
1436,0.0000,,
1437,0.0000,,
1438,0.0000,,
1439,0.0000,,
1440,0.0000,,
1441,0.0000,,
1442,0.0000,,
1443,0.0000,,
1444,0.0000,,
1445,0.0000,,
1446,0.0000,,
1447,0.0000,,
1448,0.0000,,
1449,0.0000,,
1450,0.0000,,
1451,0.0000,,
1452,0.0000,,
1453,0.0000,,
1454,0.0000,,
1455,0.0000,,
1456,0.0000,,
1457,0.0000,,
1458,0.0000,,
1459,0.0000,,
1460,0.0000,,
1461,0.0000,,
1462,0.0000,,
1463,0.0000,,
1464,0.0000,,
1465,0.0000,,
1466,0.0000,,
1467,0.0000,,
1468,0.0000,,
1469,0.0000,,
1470,0.0000,,
1471,0.0000,,
1472,0.0000,,
1473,0.0000,,
1474,0.0000,,
1475,0.0000,,
1476,0.0000,,
1477,0.0000,,
1478,0.0000,,
1479,0.0000,,
1480,0.0000,,
1481,0.0000,,
1482,0.0000,,
1483,0.0000,,
1484,0.0000,,
1485,0.0000,,
1486,0.0000,,
1487,0.0000,,
1488,0.0000,,
1489,0.0000,,
1490,0.0000,,
1491,0.0000,,
1492,0.0000,,
1493,0.0000,,
1494,0.0000,,
1495,0.0000,,
1496,0.0000,,
1497,0.0000,,
1498,0.0000,,
1499,0.0000,,
1500,0.0000,,
1501,0.0000,,
1502,0.0000,,
1503,0.0000,,
1504,0.0000,,
1505,0.0000,,
1506,0.0000,,
1507,0.0000,,
1508,0.0000,,
1509,0.0000,,
1510,0.0000,,
1511,0.0000,,
1512,0.0000,,
1513,0.0000,,
1514,0.0000,,
1515,0.0000,,
1516,0.0000,,
1517,0.0000,,
1518,0.0000,,
1519,0.0000,,
1520,0.0000,,
1521,0.0000,,
1522,0.0000,,
1523,0.0000,,
1524,0.0000,,
1525,0.0000,,
1526,0.0000,,
1527,0.0000,,
1528,0.0000,,
1529,0.0000,,
1530,0.0000,,
1531,0.0000,,
1532,0.0000,,
1533,0.0000,,
1534,0.0000,,
1535,0.0000,,
1536,0.0000,,
1537,0.0000,,
1538,0.0000,,
1539,0.0000,,
1540,0.0000,,
1541,0.0000,,
1542,0.0000,,
1543,0.0000,,
1544,0.0000,,
1545,0.0000,,
1546,0.0000,,
1547,0.0000,,
1548,0.0000,,
1549,0.0000,,
1550,0.0000,,
1551,0.0000,,
1552,0.0000,,
1553,0.0000,,
1554,0.0000,,
1555,0.0000,,
1556,0.0000,,
1557,0.0000,,
1558,0.0000,,
1559,0.0000,,
1560,0.0000,,
1561,0.0000,,
1562,0.0000,,
1563,0.0000,,
1564,0.0000,,
1565,0.0000,,
1566,0.0000,,
1567,0.0000,,
1568,0.0000,,
1569,0.0000,,
1570,0.0000,,
1571,0.0000,,
1572,0.0000,,
1573,0.0000,,
1574,0.0000,,
1575,0.0000,,
1576,0.0000,,
1577,0.0000,,
1578,0.0000,,
1579,0.0000,,
1580,0.0000,,
1581,0.0000,,
1582,0.0000,,
1583,0.0000,,
1584,0.0000,,
1585,0.0000,,
1586,0.0000,,
1587,0.0000,,
1588,0.0000,,
1589,0.0000,,
1590,0.0000,,
1591,0.0000,,
1592,0.0000,,
1593,0.0000,,
1594,0.0000,,
1595,0.0000,,
1596,0.0000,,
1597,0.0000,,
1598,0.0000,,
1599,0.0000,,
1600,0.0000,,
1601,0.0000,,
1602,0.0000,,
1603,0.0000,,
1604,0.0000,,
1605,0.0000,,
1606,0.0000,,
1607,0.0000,,
1608,0.0000,,
1609,0.0000,,
1610,0.0000,,
1611,0.0000,,
1612,0.0000,,
1613,0.0000,,
1614,0.0000,,
1615,0.0000,,
1616,0.0000,,
1617,0.0000,,
1618,0.0000,,
1619,0.0000,,
1620,0.0000,,
1621,0.0000,,
1622,0.0000,,
1623,0.0000,,
1624,0.0000,,
1625,0.0000,,
1626,0.0000,,
1627,0.0000,,
1628,0.0000,,
1629,0.0000,,
1630,0.0000,,
1631,0.0000,,
1632,0.0000,,
1633,0.0000,,
1634,0.0000,,
1635,0.0000,,
1636,0.0000,,
1637,0.0000,,
1638,0.0000,,
1639,0.0000,,
1640,0.0000,,
1641,0.0000,,
1642,0.0000,,
1643,0.0000,,
1644,0.0000,,
1645,0.0000,,
1646,0.0000,,
1647,0.0000,,
1648,0.0000,,
1649,0.0000,,
1650,0.0000,,
1651,0.0000,,
1652,0.0000,,
1653,0.0000,,
1654,0.0000,,
1655,0.0000,,
1656,0.0000,,
1657,0.0000,,
1658,0.0000,,
1659,0.0000,,
1660,0.0000,,
1661,0.0000,,
1662,0.0000,,
1663,0.0000,,
1664,0.0000,,
1665,0.0000,,
1666,0.0000,,
1667,0.0000,,
1668,0.0000,,
1669,0.0000,,
1670,0.0000,,
1671,0.0000,,
1672,0.0000,,
1673,0.0000,,
1674,0.0000,,
1675,0.0000,,
1676,0.0000,,
1677,0.0000,,
1678,0.0000,,
1679,0.0000,,
1680,0.0000,,
1681,0.0000,,
1682,0.0000,,
1683,0.0000,,
1684,0.0000,,
1685,0.0000,,
1686,0.0000,,
1687,0.0000,,
1688,0.0000,,
1689,0.0000,,
1690,0.0000,,
1691,0.0000,,
1692,0.0000,,
1693,0.0000,,
1694,0.0000,,
1695,0.0000,,
1696,0.0000,,
1697,0.0000,,
1698,0.0000,,
1699,0.0000,,
1700,0.0000,,
1701,0.0000,,
1702,0.0000,,
1703,0.0000,,
1704,0.0000,,
1705,0.0000,,
1706,0.0000,,
1707,0.0000,,
1708,0.0000,,
1709,0.0000,,
1710,0.0000,,
1711,0.0000,,
1712,0.0000,,
1713,0.0000,,
1714,0.0000,,
1715,0.0000,,
1716,0.0000,,
1717,0.0000,,
1718,0.0000,,
1719,0.0000,,
1720,0.0000,,
1721,0.0000,,
1722,0.0000,,
1723,0.0000,,
1724,0.0000,,
1725,0.0000,,
1726,0.0000,,
1727,0.0000,,
1728,0.0000,,
1729,0.0000,,
1730,0.0000,,
1731,0.0000,,
1732,0.0000,,
1733,0.0000,,
1734,0.0000,,
1735,0.0000,,
1736,0.0000,,
1737,0.0000,,
1738,0.0000,,
1739,0.0000,,
1740,0.0000,,
1741,0.0000,,
1742,0.0000,,
1743,0.0000,,
1744,0.0000,,
1745,0.0000,,
1746,0.0000,,
1747,0.0000,,
1748,0.0000,,
1749,0.0000,,
1750,0.0000,,
1751,0.0000,,
1752,0.0000,,
1753,0.0000,,
1754,0.0000,,
1755,0.0000,,
1756,0.0000,,
1757,0.0000,,
1758,0.0000,,
1759,0.0000,,
1760,0.0000,,
1761,0.0000,,
1762,0.0000,,
1763,0.0000,,
1764,0.0000,,
1765,0.0000,,
1766,0.0000,,
1767,0.0000,,
1768,0.0000,,
1769,0.0000,,
1770,0.0000,,
1771,0.0000,,
1772,0.0000,,
1773,0.0000,,
1774,0.0000,,
1775,0.0000,,
1776,0.0000,,
1777,0.0000,,
1778,0.0000,,
1779,0.0000,,
1780,0.0000,,
1781,0.0000,,
1782,0.0000,,
1783,0.0000,,
1784,0.0000,,
1785,0.0000,,
1786,0.0000,,
1787,0.0000,,
1788,0.0000,,
1789,0.0000,,
1790,0.0000,,
1791,0.0000,,
1792,0.0000,,
1793,0.0000,,
1794,0.0000,,
1795,0.0000,,
1796,0.0000,,
1797,0.0000,,
1798,0.0000,,
1799,0.0000,,
1800,0.0000,,
1801,0.0000,,
1802,0.0000,,
1803,0.0000,,
1804,0.0000,,
1805,0.0000,,
1806,0.0000,,
1807,0.0000,,
1808,0.0000,,
1809,0.0000,,
1810,0.0000,,
1811,0.0000,,
1812,0.0000,,
1813,0.0000,,
1814,0.0000,,
1815,0.0000,,
1816,0.0000,,
1817,0.0000,,
1818,0.0000,,
1819,0.0000,,
1820,0.0000,,
1821,0.0000,,
1822,0.0000,,
1823,0.0000,,
1824,0.0000,,
1825,0.0000,,
1826,0.0000,,
1827,0.0000,,
1828,0.0000,,
1829,0.0000,,
1830,0.0000,,
1831,0.0000,,
1832,0.0000,,
1833,0.0000,,
1834,0.0000,,
1835,0.0000,,
1836,0.0000,,
1837,0.0000,,
1838,0.0000,,
1839,0.0000,,
1840,0.0000,,
1841,0.0000,,
1842,0.0000,,
1843,0.0000,,
1844,0.0000,,
1845,0.0000,,
1846,0.0000,,
1847,0.0000,,
1848,0.0000,,
1849,0.0000,,
1850,0.0000,,
1851,0.0000,,
1852,0.0000,,
1853,0.0000,,
1854,0.0000,,
1855,0.0000,,
1856,0.0000,,
1857,0.0000,,
1858,0.0000,,
1859,0.0000,,
1860,0.0000,,
1861,0.0000,,
1862,0.0000,,
1863,0.0000,,
1864,0.0000,,
1865,0.0000,,
1866,0.0000,,
1867,0.0000,,
1868,0.0000,,
1869,0.0000,,
1870,0.0000,,
1871,0.0000,,
1872,0.0000,,
1873,0.0000,,
1874,0.0000,,
1875,0.0000,,
1876,0.0000,,
1877,0.0000,,
1878,0.0000,,
1879,0.0000,,
1880,0.0000,,
1881,0.0000,,
1882,0.0000,,
1883,0.0000,,
1884,0.0000,,
1885,0.0000,,
1886,0.0000,,
1887,0.0000,,
1888,0.0000,,
1889,0.0000,,
1890,0.0000,,
1891,0.0000,,
1892,0.0000,,
1893,0.0000,,
1894,0.0000,,
1895,0.0000,,
1896,0.0000,,
1897,0.0000,,
1898,0.0000,,
1899,0.0000,,
1900,0.0000,,
1901,0.0000,,
1902,0.0000,,
1903,0.0000,,
1904,0.0000,,
1905,0.0000,,
1906,0.0000,,
1907,0.0000,,
1908,0.0000,,
1909,0.0000,,
1910,0.0000,,
1911,0.0000,,
1912,0.0000,,
1913,0.0000,,
1914,0.0000,,
1915,0.0000,,
1916,0.0000,,
1917,0.0000,,
1918,0.0000,,
1919,0.0000,,
1920,0.0000,,
1921,0.0000,,
1922,0.0000,,
1923,0.0000,,
1924,0.0000,,
1925,0.0000,,
1926,0.0000,,
1927,0.0000,,
1928,0.0000,,
1929,0.0000,,
1930,0.0000,,
1931,0.0000,,
1932,0.0000,,
1933,0.0000,,
1934,0.0000,,
1935,0.0000,,
1936,0.0000,,
1937,0.0000,,
1938,0.0000,,
1939,0.0000,,
1940,0.0000,,
1941,0.0000,,
1942,0.0000,,
1943,0.0000,,
1944,0.0000,,
1945,0.0000,,
1946,0.0000,,
1947,0.0000,,
1948,0.0000,,
1949,0.0000,,
1950,0.0000,,
1951,0.0000,,
1952,0.0000,,
1953,0.0000,,
1954,0.0000,,
1955,0.0000,,
1956,0.0000,,
1957,0.0000,,
1958,0.0000,,
1959,0.0000,,
1960,0.0000,,
1961,0.0000,,
1962,0.0000,,
1963,0.0000,,
1964,0.0000,,
1965,0.0000,,
1966,0.0000,,
1967,0.0000,,
1968,0.0000,,
1969,0.0000,,
1970,0.0000,,
1971,0.0000,,
1972,0.0000,,
1973,0.0000,,
1974,0.0000,,
1975,0.0000,,
1976,0.0000,,
1977,0.0000,,
1978,0.0000,,
1979,0.0000,,
1980,0.0000,,
1981,0.0000,,
1982,0.0000,,
1983,0.0000,,
1984,0.0000,,
1985,0.0000,,
1986,0.0000,,
1987,0.0000,,
1988,0.0000,,
1989,0.0000,,
1990,0.0000,,
1991,0.0000,,
1992,0.0000,,
1993,0.0000,,
1994,0.0000,,
1995,0.0000,,
1996,0.0000,,
1997,0.0000,,
1998,0.0000,,
1999,0.0000,,

[Histogram Data]
Binwidth,4
Particle Size (nm),Volume Concentration (E12 nm³ / ml),,
2.0,0.0000,,
6.0,0.0000,,
10.0,0.0000,,
14.0,0.0000,,
18.0,0.0000,,
22.0,0.0000,,
26.0,0.0000,,
30.0,0.0000,,
34.0,0.0000,,
38.0,0.0000,,
42.0,0.0029,,
46.0,0.0044,,
50.0,0.0228,,
54.0,0.0280,,
58.0,0.0748,,
62.0,0.2270,,
66.0,0.3296,,
70.0,0.3801,,
74.0,0.3743,,
78.0,0.5689,,
82.0,0.8376,,
86.0,1.2901,,
90.0,1.5337,,
94.0,1.7686,,
98.0,2.9703,,
102.0,2.7691,,
106.0,3.8646,,
110.0,5.1238,,
114.0,7.7783,,
118.0,8.3753,,
122.0,7.1723,,
126.0,10.8056,,
130.0,9.8613,,
134.0,10.0017,,
138.0,13.3135,,
142.0,17.5434,,
146.0,13.8063,,
150.0,22.0696,,
154.0,16.4858,,
158.0,20.7317,,
162.0,19.7706,,
166.0,24.8107,,
170.0,32.9490,,
174.0,31.5604,,
178.0,39.4908,,
182.0,57.5636,,
186.0,20.5659,,
190.0,27.0262,,
194.0,75.5333,,
198.0,44.0761,,
202.0,39.9206,,
206.0,35.4389,,
210.0,33.0268,,
214.0,37.9173,,
218.0,14.9390,,
222.0,32.4329,,
226.0,26.3674,,
230.0,39.6959,,
234.0,58.2604,,
238.0,47.8503,,
242.0,37.1470,,
246.0,69.8688,,
250.0,22.0300,,
254.0,61.5630,,
258.0,31.3848,,
262.0,30.9434,,
266.0,130.6008,,
270.0,48.4663,,
274.0,34.2951,,
278.0,22.3006,,
282.0,67.4538,,
286.0,22.0482,,
290.0,51.3394,,
294.0,32.4400,,
298.0,72.5511,,
302.0,42.0148,,
306.0,41.2547,,
310.0,58.8882,,
314.0,58.0904,,
318.0,68.8460,,
322.0,46.3285,,
326.0,24.9182,,
330.0,17.7269,,
334.0,17.5454,,
338.0,51.4440,,
342.0,28.6591,,
346.0,29.3762,,
350.0,46.4079,,
354.0,24.0617,,
358.0,46.8770,,
362.0,55.6155,,
366.0,35.5722,,
370.0,86.6611,,
374.0,0.0000,,
378.0,15.5551,,
382.0,34.2276,,
386.0,38.5408,,
390.0,43.7651,,
394.0,10.5196,,
398.0,16.1270,,
402.0,100.6985,,
406.0,29.5101,,
410.0,39.7636,,
414.0,27.4527,,
418.0,20.1967,,
422.0,20.6825,,
426.0,206.8311,,
430.0,128.8238,,
434.0,30.1872,,
438.0,8.8214,,
442.0,17.7935,,
446.0,33.1171,,
450.0,305.4751,,
454.0,0.0000,,
458.0,0.0000,,
462.0,0.0000,,
466.0,15.6370,,
470.0,11.8216,,
474.0,19.9218,,
478.0,11.4755,,
482.0,11.7669,,
486.0,23.4871,,
490.0,24.2187,,
494.0,0.0000,,
498.0,58.4407,,
502.0,0.0000,,
506.0,101.7771,,
510.0,51.0182,,
514.0,64.1017,,
518.0,0.0000,,
522.0,0.0000,,
526.0,0.0000,,
530.0,0.0000,,
534.0,0.0000,,
538.0,0.0000,,
542.0,76.6431,,
546.0,0.0000,,
550.0,0.0000,,
554.0,0.0000,,
558.0,0.0000,,
562.0,49.3727,,
566.0,0.0000,,
570.0,0.0000,,
574.0,96.4511,,
578.0,0.0000,,
582.0,105.3601,,
586.0,0.0000,,
590.0,0.0000,,
594.0,0.0000,,
598.0,0.0000,,
602.0,0.0000,,
606.0,0.0000,,
610.0,85.2082,,
614.0,0.0000,,
618.0,38.4221,,
622.0,0.0000,,
626.0,45.7052,,
630.0,42.7412,,
634.0,0.0000,,
638.0,80.7062,,
642.0,0.0000,,
646.0,45.8700,,
650.0,0.0000,,
654.0,0.0000,,
658.0,0.0000,,
662.0,0.0000,,
666.0,0.0000,,
670.0,0.0000,,
674.0,180.2680,,
678.0,0.0000,,
682.0,0.0000,,
686.0,0.0000,,
690.0,0.0000,,
694.0,0.0000,,
698.0,0.0000,,
702.0,0.0000,,
706.0,0.0000,,
710.0,0.0000,,
714.0,0.0000,,
718.0,66.0255,,
722.0,0.0000,,
726.0,0.0000,,
730.0,0.0000,,
734.0,0.0000,,
738.0,0.0000,,
742.0,0.0000,,
746.0,0.0000,,
750.0,0.0000,,
754.0,0.0000,,
758.0,0.0000,,
762.0,0.0000,,
766.0,0.0000,,
770.0,167.9464,,
774.0,0.0000,,
778.0,0.0000,,
782.0,0.0000,,
786.0,0.0000,,
790.0,0.0000,,
794.0,0.0000,,
798.0,0.0000,,
802.0,0.0000,,
806.0,0.0000,,
810.0,0.0000,,
814.0,0.0000,,
818.0,0.0000,,
822.0,0.0000,,
826.0,0.0000,,
830.0,0.0000,,
834.0,0.0000,,
838.0,0.0000,,
842.0,0.0000,,
846.0,0.0000,,
850.0,0.0000,,
854.0,0.0000,,
858.0,0.0000,,
862.0,0.0000,,
866.0,137.5355,,
870.0,0.0000,,
874.0,0.0000,,
878.0,0.0000,,
882.0,0.0000,,
886.0,0.0000,,
890.0,0.0000,,
894.0,0.0000,,
898.0,0.0000,,
902.0,0.0000,,
906.0,0.0000,,
910.0,0.0000,,
914.0,0.0000,,
918.0,0.0000,,
922.0,0.0000,,
926.0,0.0000,,
930.0,0.0000,,
934.0,0.0000,,
938.0,0.0000,,
942.0,0.0000,,
946.0,0.0000,,
950.0,0.0000,,
954.0,0.0000,,
958.0,0.0000,,
962.0,0.0000,,
966.0,0.0000,,
970.0,0.0000,,
974.0,0.0000,,
978.0,0.0000,,
982.0,0.0000,,
986.0,0.0000,,
990.0,0.0000,,
994.0,256.8057,,
998.0,0.0000,,
1002.0,0.0000,,
1006.0,0.0000,,
1010.0,0.0000,,
1014.0,0.0000,,
1018.0,0.0000,,
1022.0,0.0000,,
1026.0,0.0000,,
1030.0,0.0000,,
1034.0,0.0000,,
1038.0,0.0000,,
1042.0,0.0000,,
1046.0,0.0000,,
1050.0,0.0000,,
1054.0,0.0000,,
1058.0,0.0000,,
1062.0,0.0000,,
1066.0,0.0000,,
1070.0,0.0000,,
1074.0,0.0000,,
1078.0,0.0000,,
1082.0,0.0000,,
1086.0,0.0000,,
1090.0,0.0000,,
1094.0,0.0000,,
1098.0,0.0000,,
1102.0,0.0000,,
1106.0,0.0000,,
1110.0,0.0000,,
1114.0,0.0000,,
1118.0,0.0000,,
1122.0,0.0000,,
1126.0,0.0000,,
1130.0,0.0000,,
1134.0,0.0000,,
1138.0,0.0000,,
1142.0,0.0000,,
1146.0,0.0000,,
1150.0,0.0000,,
1154.0,0.0000,,
1158.0,0.0000,,
1162.0,0.0000,,
1166.0,0.0000,,
1170.0,0.0000,,
1174.0,0.0000,,
1178.0,0.0000,,
1182.0,0.0000,,
1186.0,0.0000,,
1190.0,0.0000,,
1194.0,0.0000,,
1198.0,0.0000,,
1202.0,0.0000,,
1206.0,0.0000,,
1210.0,0.0000,,
1214.0,0.0000,,
1218.0,0.0000,,
1222.0,0.0000,,
1226.0,0.0000,,
1230.0,0.0000,,
1234.0,0.0000,,
1238.0,0.0000,,
1242.0,0.0000,,
1246.0,0.0000,,
1250.0,0.0000,,
1254.0,0.0000,,
1258.0,0.0000,,
1262.0,0.0000,,
1266.0,0.0000,,
1270.0,0.0000,,
1274.0,0.0000,,
1278.0,0.0000,,
1282.0,0.0000,,
1286.0,0.0000,,
1290.0,0.0000,,
1294.0,0.0000,,
1298.0,0.0000,,
1302.0,0.0000,,
1306.0,0.0000,,
1310.0,0.0000,,
1314.0,0.0000,,
1318.0,0.0000,,
1322.0,0.0000,,
1326.0,0.0000,,
1330.0,0.0000,,
1334.0,0.0000,,
1338.0,0.0000,,
1342.0,0.0000,,
1346.0,0.0000,,
1350.0,0.0000,,
1354.0,0.0000,,
1358.0,0.0000,,
1362.0,0.0000,,
1366.0,0.0000,,
1370.0,0.0000,,
1374.0,0.0000,,
1378.0,0.0000,,
1382.0,0.0000,,
1386.0,0.0000,,
1390.0,0.0000,,
1394.0,0.0000,,
1398.0,0.0000,,
1402.0,0.0000,,
1406.0,0.0000,,
1410.0,0.0000,,
1414.0,0.0000,,
1418.0,0.0000,,
1422.0,0.0000,,
1426.0,0.0000,,
1430.0,0.0000,,
1434.0,0.0000,,
1438.0,0.0000,,
1442.0,0.0000,,
1446.0,0.0000,,
1450.0,0.0000,,
1454.0,0.0000,,
1458.0,0.0000,,
1462.0,0.0000,,
1466.0,0.0000,,
1470.0,0.0000,,
1474.0,0.0000,,
1478.0,0.0000,,
1482.0,0.0000,,
1486.0,0.0000,,
1490.0,0.0000,,
1494.0,0.0000,,
1498.0,0.0000,,
1502.0,0.0000,,
1506.0,0.0000,,
1510.0,0.0000,,
1514.0,0.0000,,
1518.0,0.0000,,
1522.0,0.0000,,
1526.0,0.0000,,
1530.0,0.0000,,
1534.0,0.0000,,
1538.0,0.0000,,
1542.0,0.0000,,
1546.0,0.0000,,
1550.0,0.0000,,
1554.0,0.0000,,
1558.0,0.0000,,
1562.0,0.0000,,
1566.0,0.0000,,
1570.0,0.0000,,
1574.0,0.0000,,
1578.0,0.0000,,
1582.0,0.0000,,
1586.0,0.0000,,
1590.0,0.0000,,
1594.0,0.0000,,
1598.0,0.0000,,
1602.0,0.0000,,
1606.0,0.0000,,
1610.0,0.0000,,
1614.0,0.0000,,
1618.0,0.0000,,
1622.0,0.0000,,
1626.0,0.0000,,
1630.0,0.0000,,
1634.0,0.0000,,
1638.0,0.0000,,
1642.0,0.0000,,
1646.0,0.0000,,
1650.0,0.0000,,
1654.0,0.0000,,
1658.0,0.0000,,
1662.0,0.0000,,
1666.0,0.0000,,
1670.0,0.0000,,
1674.0,0.0000,,
1678.0,0.0000,,
1682.0,0.0000,,
1686.0,0.0000,,
1690.0,0.0000,,
1694.0,0.0000,,
1698.0,0.0000,,
1702.0,0.0000,,
1706.0,0.0000,,
1710.0,0.0000,,
1714.0,0.0000,,
1718.0,0.0000,,
1722.0,0.0000,,
1726.0,0.0000,,
1730.0,0.0000,,
1734.0,0.0000,,
1738.0,0.0000,,
1742.0,0.0000,,
1746.0,0.0000,,
1750.0,0.0000,,
1754.0,0.0000,,
1758.0,0.0000,,
1762.0,0.0000,,
1766.0,0.0000,,
1770.0,0.0000,,
1774.0,0.0000,,
1778.0,0.0000,,
1782.0,0.0000,,
1786.0,0.0000,,
1790.0,0.0000,,
1794.0,0.0000,,
1798.0,0.0000,,
1802.0,0.0000,,
1806.0,0.0000,,
1810.0,0.0000,,
1814.0,0.0000,,
1818.0,0.0000,,
1822.0,0.0000,,
1826.0,0.0000,,
1830.0,0.0000,,
1834.0,0.0000,,
1838.0,0.0000,,
1842.0,0.0000,,
1846.0,0.0000,,
1850.0,0.0000,,
1854.0,0.0000,,
1858.0,0.0000,,
1862.0,0.0000,,
1866.0,0.0000,,
1870.0,0.0000,,
1874.0,0.0000,,
1878.0,0.0000,,
1882.0,0.0000,,
1886.0,0.0000,,
1890.0,0.0000,,
1894.0,0.0000,,
1898.0,0.0000,,
1902.0,0.0000,,
1906.0,0.0000,,
1910.0,0.0000,,
1914.0,0.0000,,
1918.0,0.0000,,
1922.0,0.0000,,
1926.0,0.0000,,
1930.0,0.0000,,
1934.0,0.0000,,
1938.0,0.0000,,
1942.0,0.0000,,
1946.0,0.0000,,
1950.0,0.0000,,
1954.0,0.0000,,
1958.0,0.0000,,
1962.0,0.0000,,
1966.0,0.0000,,
1970.0,0.0000,,
1974.0,0.0000,,
1978.0,0.0000,,
1982.0,0.0000,,
1986.0,0.0000,,
1990.0,0.0000,,
1994.0,0.0000,,
1998.0,0.0000,,

[Percentile Undersize]
Percentile,Particle Size (nm) (Volume Weighted),
0,30,
1,125,
2,142,
3,154,
4,163,
5,171,
6,177,
7,183,
8,188,
9,194,
10,199,
11,205,
12,210,
13,216,
14,222,
15,228,
16,233,
17,238,
18,243,
19,248,
20,252,
21,257,
22,261,
23,265,
24,270,
25,274,
26,278,
27,283,
28,287,
29,292,
30,297,
31,301,
32,306,
33,311,
34,316,
35,321,
36,326,
37,331,
38,337,
39,342,
40,348,
41,354,
42,359,
43,365,
44,370,
45,376,
46,381,
47,387,
48,392,
49,397,
50,401,
51,406,
52,410,
53,415,
54,419,
55,423,
56,427,
57,431,
58,436,
59,440,
60,444,
61,448,
62,453,
63,458,
64,463,
65,469,
66,475,
67,482,
68,489,
69,497,
70,505,
71,514,
72,524,
73,534,
74,544,
75,554,
76,565,
77,575,
78,585,
79,595,
80,605,
81,615,
82,625,
83,636,
84,647,
85,659,
86,671,
87,685,
88,701,
89,720,
90,742,
91,767,
92,795,
93,828,
94,864,
95,903,
96,940,
97,974,
98,1008,
99,1048,
100,1259,

