[Software Info]
Build,NTA 2.3 build 0033

[Sample Information]
Operator,""
Sample Description,"coffee"
Diluent,"aqua dest."
Concentration,"1:19"
Pre-treatmeant,""
Comments,""

[Results Summary]
Total Frames,900
Processed Frames,900
Valid Tracks,2622
Overall Drift (nm/s),2410.14
X-Drift (nm/s),-716.48
Y-Drift (nm/s),2301.18
Calibration (nm/pixel),166

Size Data - Concentration Weighted,
Mode (nm),170.00
Mean (nm),143.78
Standard Deviation (nm),61.02
Size data - Model Fit,
Mean (nm),0.00
Standard Deviation (nm),0.00

User Line 1,37
User Line 2,205
Average # centres/frame,108.55
Average # particles/frame,90.90
Equivalent particle concentration (E8 particles/ml),13.88
Selected average # particles/frame,74.99
Selected equivalent particle concentration (E8 particles/ml),11.45

[Settings],
Background Extract,On
Brightness,0
Gain,1.00
Blur Size,Auto,
Detection Threshold Type,Multi,
Detection Threshold,22
Min Track Length,Auto
Min Expected Size (nm),Auto

[Measurement Conditions]
Camera Type,CCD
Camera Shutter (ms),8.00
Camera Gain,500
Frame rate (fps),30.00
Temperature (°C),23.90
Viscosity (cP),0.911

[Warnings]
Low Completed Tracks,No
High Noise,0 frames
Auto max jump,Successful
Drift off,No
Settings Changed Whilst Processing,No
Vibration detected,Vibration detected <~10% error
Additional Errors,None

[Graph Data]
Particle Size (nm),Concentration (E6 particles / ml),,
0,0.0000,,
1,0.0000,,
2,0.0000,,
3,0.0000,,
4,0.0000,,
5,0.0000,,
6,0.0000,,
7,0.0000,,
8,0.0000,,
9,0.0000,,
10,0.0000,,
11,0.0000,,
12,0.0000,,
13,0.0002,,
14,0.0020,,
15,0.0117,,
16,0.0354,,
17,0.0617,,
18,0.0838,,
19,0.1398,,
20,0.2868,,
21,0.5485,,
22,0.8618,,
23,1.1133,,
24,1.2772,,
25,1.4455,,
26,1.6950,,
27,2.0058,,
28,2.3185,,
29,2.5961,,
30,2.8181,,
31,2.9754,,
32,3.0878,,
33,3.1974,,
34,3.3342,,
35,3.4961,,
36,3.6583,,
37,3.7974,,
38,3.9081,,
39,3.9990,,
40,4.0851,,
41,4.1799,,
42,4.2891,,
43,4.4093,,
44,4.5253,,
45,4.6162,,
46,4.6660,,
47,4.6723,,
48,4.6465,,
49,4.6118,,
50,4.5915,,
51,4.6021,,
52,4.6483,,
53,4.7232,,
54,4.8141,,
55,4.9057,,
56,4.9841,,
57,5.0399,,
58,5.0685,,
59,5.0707,,
60,5.0521,,
61,5.0198,,
62,4.9820,,
63,4.9449,,
64,4.9125,,
65,4.8868,,
66,4.8676,,
67,4.8535,,
68,4.8434,,
69,4.8373,,
70,4.8353,,
71,4.8399,,
72,4.8527,,
73,4.8767,,
74,4.9141,,
75,4.9658,,
76,5.0321,,
77,5.1107,,
78,5.1984,,
79,5.2914,,
80,5.3857,,
81,5.4768,,
82,5.5613,,
83,5.6371,,
84,5.7036,,
85,5.7619,,
86,5.8135,,
87,5.8615,,
88,5.9092,,
89,5.9589,,
90,6.0131,,
91,6.0731,,
92,6.1387,,
93,6.2098,,
94,6.2847,,
95,6.3624,,
96,6.4409,,
97,6.5183,,
98,6.5935,,
99,6.6653,,
100,6.7322,,
101,6.7933,,
102,6.8480,,
103,6.8951,,
104,6.9348,,
105,6.9661,,
106,6.9892,,
107,7.0047,,
108,7.0129,,
109,7.0146,,
110,7.0108,,
111,7.0025,,
112,6.9907,,
113,6.9770,,
114,6.9624,,
115,6.9477,,
116,6.9340,,
117,6.9222,,
118,6.9131,,
119,6.9077,,
120,6.9064,,
121,6.9100,,
122,6.9187,,
123,6.9335,,
124,6.9543,,
125,6.9815,,
126,7.0152,,
127,7.0553,,
128,7.1020,,
129,7.1545,,
130,7.2125,,
131,7.2751,,
132,7.3421,,
133,7.4123,,
134,7.4845,,
135,7.5583,,
136,7.6321,,
137,7.7052,,
138,7.7770,,
139,7.8464,,
140,7.9131,,
141,7.9765,,
142,8.0369,,
143,8.0940,,
144,8.1481,,
145,8.1997,,
146,8.2496,,
147,8.2986,,
148,8.3472,,
149,8.3965,,
150,8.4474,,
151,8.5005,,
152,8.5570,,
153,8.6169,,
154,8.6808,,
155,8.7486,,
156,8.8203,,
157,8.8957,,
158,8.9737,,
159,9.0539,,
160,9.1348,,
161,9.2154,,
162,9.2940,,
163,9.3692,,
164,9.4393,,
165,9.5028,,
166,9.5581,,
167,9.6037,,
168,9.6380,,
169,9.6601,,
170,9.6689,,
171,9.6639,,
172,9.6444,,
173,9.6104,,
174,9.5616,,
175,9.4982,,
176,9.4212,,
177,9.3308,,
178,9.2280,,
179,9.1137,,
180,8.9893,,
181,8.8556,,
182,8.7140,,
183,8.5657,,
184,8.4119,,
185,8.2539,,
186,8.0927,,
187,7.9294,,
188,7.7649,,
189,7.6002,,
190,7.4363,,
191,7.2736,,
192,7.1127,,
193,6.9544,,
194,6.7989,,
195,6.6467,,
196,6.4981,,
197,6.3531,,
198,6.2121,,
199,6.0753,,
200,5.9426,,
201,5.8139,,
202,5.6894,,
203,5.5690,,
204,5.4527,,
205,5.3402,,
206,5.2314,,
207,5.1261,,
208,5.0243,,
209,4.9258,,
210,4.8301,,
211,4.7372,,
212,4.6466,,
213,4.5584,,
214,4.4722,,
215,4.3875,,
216,4.3043,,
217,4.2224,,
218,4.1415,,
219,4.0613,,
220,3.9815,,
221,3.9019,,
222,3.8225,,
223,3.7433,,
224,3.6638,,
225,3.5840,,
226,3.5040,,
227,3.4235,,
228,3.3427,,
229,3.2614,,
230,3.1797,,
231,3.0977,,
232,3.0152,,
233,2.9328,,
234,2.8502,,
235,2.7676,,
236,2.6851,,
237,2.6030,,
238,2.5212,,
239,2.4400,,
240,2.3594,,
241,2.2798,,
242,2.2013,,
243,2.1238,,
244,2.0476,,
245,1.9728,,
246,1.8996,,
247,1.8281,,
248,1.7582,,
249,1.6902,,
250,1.6241,,
251,1.5599,,
252,1.4977,,
253,1.4375,,
254,1.3793,,
255,1.3231,,
256,1.2691,,
257,1.2171,,
258,1.1671,,
259,1.1189,,
260,1.0728,,
261,1.0286,,
262,0.9863,,
263,0.9457,,
264,0.9069,,
265,0.8699,,
266,0.8345,,
267,0.8007,,
268,0.7683,,
269,0.7376,,
270,0.7082,,
271,0.6802,,
272,0.6535,,
273,0.6282,,
274,0.6040,,
275,0.5812,,
276,0.5594,,
277,0.5388,,
278,0.5192,,
279,0.5008,,
280,0.4833,,
281,0.4668,,
282,0.4512,,
283,0.4365,,
284,0.4226,,
285,0.4097,,
286,0.3975,,
287,0.3862,,
288,0.3755,,
289,0.3656,,
290,0.3563,,
291,0.3477,,
292,0.3397,,
293,0.3323,,
294,0.3254,,
295,0.3190,,
296,0.3130,,
297,0.3075,,
298,0.3022,,
299,0.2975,,
300,0.2931,,
301,0.2889,,
302,0.2849,,
303,0.2812,,
304,0.2777,,
305,0.2743,,
306,0.2710,,
307,0.2678,,
308,0.2647,,
309,0.2616,,
310,0.2585,,
311,0.2555,,
312,0.2524,,
313,0.2492,,
314,0.2460,,
315,0.2427,,
316,0.2394,,
317,0.2359,,
318,0.2323,,
319,0.2287,,
320,0.2249,,
321,0.2210,,
322,0.2170,,
323,0.2130,,
324,0.2088,,
325,0.2045,,
326,0.2002,,
327,0.1958,,
328,0.1913,,
329,0.1867,,
330,0.1821,,
331,0.1775,,
332,0.1728,,
333,0.1682,,
334,0.1635,,
335,0.1588,,
336,0.1542,,
337,0.1496,,
338,0.1450,,
339,0.1405,,
340,0.1361,,
341,0.1317,,
342,0.1274,,
343,0.1232,,
344,0.1191,,
345,0.1151,,
346,0.1113,,
347,0.1075,,
348,0.1038,,
349,0.1003,,
350,0.0969,,
351,0.0936,,
352,0.0905,,
353,0.0875,,
354,0.0846,,
355,0.0818,,
356,0.0792,,
357,0.0767,,
358,0.0743,,
359,0.0720,,
360,0.0699,,
361,0.0678,,
362,0.0659,,
363,0.0641,,
364,0.0624,,
365,0.0608,,
366,0.0592,,
367,0.0578,,
368,0.0565,,
369,0.0552,,
370,0.0540,,
371,0.0529,,
372,0.0519,,
373,0.0509,,
374,0.0500,,
375,0.0491,,
376,0.0483,,
377,0.0476,,
378,0.0469,,
379,0.0462,,
380,0.0456,,
381,0.0450,,
382,0.0445,,
383,0.0440,,
384,0.0435,,
385,0.0431,,
386,0.0426,,
387,0.0422,,
388,0.0419,,
389,0.0415,,
390,0.0412,,
391,0.0408,,
392,0.0405,,
393,0.0403,,
394,0.0400,,
395,0.0397,,
396,0.0395,,
397,0.0392,,
398,0.0390,,
399,0.0388,,
400,0.0385,,
401,0.0383,,
402,0.0381,,
403,0.0379,,
404,0.0377,,
405,0.0376,,
406,0.0374,,
407,0.0372,,
408,0.0370,,
409,0.0368,,
410,0.0366,,
411,0.0365,,
412,0.0363,,
413,0.0361,,
414,0.0359,,
415,0.0357,,
416,0.0356,,
417,0.0354,,
418,0.0352,,
419,0.0350,,
420,0.0348,,
421,0.0346,,
422,0.0344,,
423,0.0342,,
424,0.0339,,
425,0.0337,,
426,0.0335,,
427,0.0333,,
428,0.0330,,
429,0.0328,,
430,0.0325,,
431,0.0323,,
432,0.0320,,
433,0.0318,,
434,0.0315,,
435,0.0312,,
436,0.0309,,
437,0.0306,,
438,0.0303,,
439,0.0300,,
440,0.0297,,
441,0.0294,,
442,0.0290,,
443,0.0287,,
444,0.0284,,
445,0.0280,,
446,0.0277,,
447,0.0273,,
448,0.0269,,
449,0.0266,,
450,0.0262,,
451,0.0258,,
452,0.0254,,
453,0.0250,,
454,0.0246,,
455,0.0242,,
456,0.0238,,
457,0.0234,,
458,0.0229,,
459,0.0225,,
460,0.0221,,
461,0.0217,,
462,0.0212,,
463,0.0208,,
464,0.0204,,
465,0.0199,,
466,0.0195,,
467,0.0190,,
468,0.0186,,
469,0.0181,,
470,0.0177,,
471,0.0172,,
472,0.0168,,
473,0.0163,,
474,0.0159,,
475,0.0154,,
476,0.0150,,
477,0.0146,,
478,0.0141,,
479,0.0137,,
480,0.0133,,
481,0.0128,,
482,0.0124,,
483,0.0120,,
484,0.0116,,
485,0.0112,,
486,0.0108,,
487,0.0104,,
488,0.0100,,
489,0.0096,,
490,0.0092,,
491,0.0088,,
492,0.0085,,
493,0.0081,,
494,0.0078,,
495,0.0074,,
496,0.0071,,
497,0.0068,,
498,0.0065,,
499,0.0062,,
500,0.0059,,
501,0.0056,,
502,0.0053,,
503,0.0050,,
504,0.0048,,
505,0.0045,,
506,0.0043,,
507,0.0041,,
508,0.0038,,
509,0.0036,,
510,0.0034,,
511,0.0032,,
512,0.0030,,
513,0.0028,,
514,0.0027,,
515,0.0025,,
516,0.0023,,
517,0.0022,,
518,0.0021,,
519,0.0019,,
520,0.0018,,
521,0.0017,,
522,0.0016,,
523,0.0015,,
524,0.0014,,
525,0.0013,,
526,0.0012,,
527,0.0011,,
528,0.0010,,
529,0.0009,,
530,0.0009,,
531,0.0008,,
532,0.0007,,
533,0.0007,,
534,0.0006,,
535,0.0006,,
536,0.0005,,
537,0.0005,,
538,0.0004,,
539,0.0004,,
540,0.0004,,
541,0.0003,,
542,0.0003,,
543,0.0003,,
544,0.0003,,
545,0.0002,,
546,0.0002,,
547,0.0002,,
548,0.0002,,
549,0.0002,,
550,0.0001,,
551,0.0001,,
552,0.0001,,
553,0.0001,,
554,0.0001,,
555,0.0001,,
556,0.0001,,
557,0.0001,,
558,0.0001,,
559,0.0001,,
560,0.0001,,
561,0.0000,,
562,0.0000,,
563,0.0000,,
564,0.0000,,
565,0.0000,,
566,0.0000,,
567,0.0000,,
568,0.0000,,
569,0.0000,,
570,0.0000,,
571,0.0000,,
572,0.0000,,
573,0.0000,,
574,0.0000,,
575,0.0000,,
576,0.0000,,
577,0.0000,,
578,0.0000,,
579,0.0000,,
580,0.0000,,
581,0.0000,,
582,0.0000,,
583,0.0000,,
584,0.0000,,
585,0.0000,,
586,0.0000,,
587,0.0000,,
588,0.0000,,
589,0.0000,,
590,0.0000,,
591,0.0000,,
592,0.0000,,
593,0.0000,,
594,0.0000,,
595,0.0000,,
596,0.0000,,
597,0.0000,,
598,0.0000,,
599,0.0000,,
600,0.0000,,
601,0.0000,,
602,0.0000,,
603,0.0000,,
604,0.0000,,
605,0.0000,,
606,0.0000,,
607,0.0000,,
608,0.0000,,
609,0.0000,,
610,0.0000,,
611,0.0000,,
612,0.0000,,
613,0.0000,,
614,0.0000,,
615,0.0000,,
616,0.0000,,
617,0.0000,,
618,0.0000,,
619,0.0000,,
620,0.0000,,
621,0.0000,,
622,0.0000,,
623,0.0000,,
624,0.0000,,
625,0.0000,,
626,0.0000,,
627,0.0000,,
628,0.0000,,
629,0.0000,,
630,0.0000,,
631,0.0000,,
632,0.0000,,
633,0.0000,,
634,0.0000,,
635,0.0000,,
636,0.0000,,
637,0.0000,,
638,0.0000,,
639,0.0000,,
640,0.0000,,
641,0.0000,,
642,0.0000,,
643,0.0000,,
644,0.0000,,
645,0.0000,,
646,0.0000,,
647,0.0000,,
648,0.0000,,
649,0.0000,,
650,0.0000,,
651,0.0000,,
652,0.0000,,
653,0.0000,,
654,0.0000,,
655,0.0000,,
656,0.0000,,
657,0.0000,,
658,0.0000,,
659,0.0000,,
660,0.0000,,
661,0.0000,,
662,0.0000,,
663,0.0000,,
664,0.0000,,
665,0.0000,,
666,0.0000,,
667,0.0000,,
668,0.0000,,
669,0.0000,,
670,0.0000,,
671,0.0000,,
672,0.0000,,
673,0.0000,,
674,0.0000,,
675,0.0000,,
676,0.0000,,
677,0.0000,,
678,0.0000,,
679,0.0000,,
680,0.0000,,
681,0.0000,,
682,0.0000,,
683,0.0000,,
684,0.0000,,
685,0.0000,,
686,0.0000,,
687,0.0000,,
688,0.0000,,
689,0.0000,,
690,0.0000,,
691,0.0000,,
692,0.0000,,
693,0.0000,,
694,0.0000,,
695,0.0000,,
696,0.0000,,
697,0.0000,,
698,0.0000,,
699,0.0000,,
700,0.0000,,
701,0.0000,,
702,0.0000,,
703,0.0000,,
704,0.0000,,
705,0.0000,,
706,0.0000,,
707,0.0000,,
708,0.0000,,
709,0.0000,,
710,0.0000,,
711,0.0000,,
712,0.0000,,
713,0.0000,,
714,0.0000,,
715,0.0000,,
716,0.0000,,
717,0.0000,,
718,0.0000,,
719,0.0000,,
720,0.0000,,
721,0.0000,,
722,0.0000,,
723,0.0000,,
724,0.0000,,
725,0.0000,,
726,0.0000,,
727,0.0000,,
728,0.0000,,
729,0.0000,,
730,0.0000,,
731,0.0000,,
732,0.0000,,
733,0.0000,,
734,0.0000,,
735,0.0000,,
736,0.0000,,
737,0.0000,,
738,0.0000,,
739,0.0000,,
740,0.0000,,
741,0.0000,,
742,0.0000,,
743,0.0000,,
744,0.0000,,
745,0.0000,,
746,0.0000,,
747,0.0000,,
748,0.0000,,
749,0.0000,,
750,0.0000,,
751,0.0000,,
752,0.0000,,
753,0.0000,,
754,0.0000,,
755,0.0000,,
756,0.0000,,
757,0.0000,,
758,0.0000,,
759,0.0000,,
760,0.0000,,
761,0.0000,,
762,0.0000,,
763,0.0000,,
764,0.0000,,
765,0.0000,,
766,0.0000,,
767,0.0000,,
768,0.0000,,
769,0.0000,,
770,0.0000,,
771,0.0000,,
772,0.0000,,
773,0.0000,,
774,0.0000,,
775,0.0000,,
776,0.0000,,
777,0.0000,,
778,0.0000,,
779,0.0000,,
780,0.0000,,
781,0.0000,,
782,0.0000,,
783,0.0000,,
784,0.0000,,
785,0.0000,,
786,0.0000,,
787,0.0000,,
788,0.0000,,
789,0.0000,,
790,0.0000,,
791,0.0000,,
792,0.0000,,
793,0.0000,,
794,0.0000,,
795,0.0000,,
796,0.0000,,
797,0.0000,,
798,0.0000,,
799,0.0000,,
800,0.0000,,
801,0.0000,,
802,0.0000,,
803,0.0000,,
804,0.0000,,
805,0.0000,,
806,0.0000,,
807,0.0000,,
808,0.0000,,
809,0.0000,,
810,0.0000,,
811,0.0000,,
812,0.0000,,
813,0.0000,,
814,0.0000,,
815,0.0000,,
816,0.0000,,
817,0.0000,,
818,0.0000,,
819,0.0000,,
820,0.0000,,
821,0.0000,,
822,0.0000,,
823,0.0000,,
824,0.0000,,
825,0.0000,,
826,0.0000,,
827,0.0000,,
828,0.0000,,
829,0.0000,,
830,0.0000,,
831,0.0000,,
832,0.0000,,
833,0.0000,,
834,0.0000,,
835,0.0000,,
836,0.0000,,
837,0.0000,,
838,0.0000,,
839,0.0000,,
840,0.0000,,
841,0.0000,,
842,0.0000,,
843,0.0000,,
844,0.0000,,
845,0.0000,,
846,0.0000,,
847,0.0000,,
848,0.0000,,
849,0.0000,,
850,0.0000,,
851,0.0000,,
852,0.0000,,
853,0.0000,,
854,0.0000,,
855,0.0000,,
856,0.0000,,
857,0.0000,,
858,0.0000,,
859,0.0000,,
860,0.0000,,
861,0.0000,,
862,0.0000,,
863,0.0000,,
864,0.0000,,
865,0.0000,,
866,0.0000,,
867,0.0000,,
868,0.0000,,
869,0.0000,,
870,0.0000,,
871,0.0000,,
872,0.0000,,
873,0.0000,,
874,0.0000,,
875,0.0000,,
876,0.0000,,
877,0.0000,,
878,0.0000,,
879,0.0000,,
880,0.0000,,
881,0.0000,,
882,0.0000,,
883,0.0000,,
884,0.0000,,
885,0.0000,,
886,0.0000,,
887,0.0000,,
888,0.0000,,
889,0.0000,,
890,0.0000,,
891,0.0000,,
892,0.0000,,
893,0.0000,,
894,0.0000,,
895,0.0000,,
896,0.0000,,
897,0.0000,,
898,0.0000,,
899,0.0000,,
900,0.0000,,
901,0.0000,,
902,0.0000,,
903,0.0000,,
904,0.0000,,
905,0.0000,,
906,0.0000,,
907,0.0000,,
908,0.0000,,
909,0.0000,,
910,0.0000,,
911,0.0000,,
912,0.0000,,
913,0.0000,,
914,0.0000,,
915,0.0000,,
916,0.0000,,
917,0.0000,,
918,0.0000,,
919,0.0000,,
920,0.0000,,
921,0.0000,,
922,0.0000,,
923,0.0000,,
924,0.0000,,
925,0.0000,,
926,0.0000,,
927,0.0000,,
928,0.0000,,
929,0.0000,,
930,0.0000,,
931,0.0000,,
932,0.0000,,
933,0.0000,,
934,0.0000,,
935,0.0000,,
936,0.0000,,
937,0.0000,,
938,0.0000,,
939,0.0000,,
940,0.0000,,
941,0.0000,,
942,0.0000,,
943,0.0000,,
944,0.0000,,
945,0.0000,,
946,0.0000,,
947,0.0000,,
948,0.0000,,
949,0.0000,,
950,0.0000,,
951,0.0000,,
952,0.0000,,
953,0.0000,,
954,0.0000,,
955,0.0000,,
956,0.0000,,
957,0.0000,,
958,0.0000,,
959,0.0000,,
960,0.0000,,
961,0.0000,,
962,0.0000,,
963,0.0000,,
964,0.0000,,
965,0.0000,,
966,0.0000,,
967,0.0000,,
968,0.0000,,
969,0.0000,,
970,0.0000,,
971,0.0000,,
972,0.0000,,
973,0.0000,,
974,0.0000,,
975,0.0000,,
976,0.0000,,
977,0.0000,,
978,0.0000,,
979,0.0000,,
980,0.0000,,
981,0.0000,,
982,0.0000,,
983,0.0000,,
984,0.0000,,
985,0.0000,,
986,0.0000,,
987,0.0000,,
988,0.0000,,
989,0.0000,,
990,0.0000,,
991,0.0000,,
992,0.0000,,
993,0.0000,,
994,0.0000,,
995,0.0000,,
996,0.0000,,
997,0.0000,,
998,0.0000,,
999,0.0000,,
1000,0.0000,,
1001,0.0000,,
1002,0.0000,,
1003,0.0000,,
1004,0.0000,,
1005,0.0000,,
1006,0.0000,,
1007,0.0000,,
1008,0.0000,,
1009,0.0000,,
1010,0.0000,,
1011,0.0000,,
1012,0.0000,,
1013,0.0000,,
1014,0.0000,,
1015,0.0000,,
1016,0.0000,,
1017,0.0000,,
1018,0.0000,,
1019,0.0000,,
1020,0.0000,,
1021,0.0000,,
1022,0.0000,,
1023,0.0000,,
1024,0.0000,,
1025,0.0000,,
1026,0.0000,,
1027,0.0000,,
1028,0.0000,,
1029,0.0000,,
1030,0.0000,,
1031,0.0000,,
1032,0.0000,,
1033,0.0000,,
1034,0.0000,,
1035,0.0000,,
1036,0.0000,,
1037,0.0000,,
1038,0.0000,,
1039,0.0000,,
1040,0.0000,,
1041,0.0000,,
1042,0.0000,,
1043,0.0000,,
1044,0.0000,,
1045,0.0000,,
1046,0.0000,,
1047,0.0000,,
1048,0.0000,,
1049,0.0000,,
1050,0.0000,,
1051,0.0000,,
1052,0.0000,,
1053,0.0000,,
1054,0.0000,,
1055,0.0000,,
1056,0.0000,,
1057,0.0000,,
1058,0.0000,,
1059,0.0000,,
1060,0.0000,,
1061,0.0000,,
1062,0.0000,,
1063,0.0000,,
1064,0.0000,,
1065,0.0000,,
1066,0.0000,,
1067,0.0000,,
1068,0.0000,,
1069,0.0000,,
1070,0.0000,,
1071,0.0000,,
1072,0.0000,,
1073,0.0000,,
1074,0.0000,,
1075,0.0000,,
1076,0.0000,,
1077,0.0000,,
1078,0.0000,,
1079,0.0000,,
1080,0.0000,,
1081,0.0000,,
1082,0.0000,,
1083,0.0000,,
1084,0.0000,,
1085,0.0000,,
1086,0.0000,,
1087,0.0000,,
1088,0.0000,,
1089,0.0000,,
1090,0.0000,,
1091,0.0000,,
1092,0.0000,,
1093,0.0000,,
1094,0.0000,,
1095,0.0000,,
1096,0.0000,,
1097,0.0000,,
1098,0.0000,,
1099,0.0000,,
1100,0.0000,,
1101,0.0000,,
1102,0.0000,,
1103,0.0000,,
1104,0.0000,,
1105,0.0000,,
1106,0.0000,,
1107,0.0000,,
1108,0.0000,,
1109,0.0000,,
1110,0.0000,,
1111,0.0000,,
1112,0.0000,,
1113,0.0000,,
1114,0.0000,,
1115,0.0000,,
1116,0.0000,,
1117,0.0000,,
1118,0.0000,,
1119,0.0000,,
1120,0.0000,,
1121,0.0000,,
1122,0.0000,,
1123,0.0000,,
1124,0.0000,,
1125,0.0000,,
1126,0.0000,,
1127,0.0000,,
1128,0.0000,,
1129,0.0000,,
1130,0.0000,,
1131,0.0000,,
1132,0.0000,,
1133,0.0000,,
1134,0.0000,,
1135,0.0000,,
1136,0.0000,,
1137,0.0000,,
1138,0.0000,,
1139,0.0000,,
1140,0.0000,,
1141,0.0000,,
1142,0.0000,,
1143,0.0000,,
1144,0.0000,,
1145,0.0000,,
1146,0.0000,,
1147,0.0000,,
1148,0.0000,,
1149,0.0000,,
1150,0.0000,,
1151,0.0000,,
1152,0.0000,,
1153,0.0000,,
1154,0.0000,,
1155,0.0000,,
1156,0.0000,,
1157,0.0000,,
1158,0.0000,,
1159,0.0000,,
1160,0.0000,,
1161,0.0000,,
1162,0.0000,,
1163,0.0000,,
1164,0.0000,,
1165,0.0000,,
1166,0.0000,,
1167,0.0000,,
1168,0.0000,,
1169,0.0000,,
1170,0.0000,,
1171,0.0000,,
1172,0.0000,,
1173,0.0000,,
1174,0.0000,,
1175,0.0000,,
1176,0.0000,,
1177,0.0000,,
1178,0.0000,,
1179,0.0000,,
1180,0.0000,,
1181,0.0000,,
1182,0.0000,,
1183,0.0000,,
1184,0.0000,,
1185,0.0000,,
1186,0.0000,,
1187,0.0000,,
1188,0.0000,,
1189,0.0000,,
1190,0.0000,,
1191,0.0000,,
1192,0.0000,,
1193,0.0000,,
1194,0.0000,,
1195,0.0000,,
1196,0.0000,,
1197,0.0000,,
1198,0.0000,,
1199,0.0000,,
1200,0.0000,,
1201,0.0000,,
1202,0.0000,,
1203,0.0000,,
1204,0.0000,,
1205,0.0000,,
1206,0.0000,,
1207,0.0000,,
1208,0.0000,,
1209,0.0000,,
1210,0.0000,,
1211,0.0000,,
1212,0.0000,,
1213,0.0000,,
1214,0.0000,,
1215,0.0000,,
1216,0.0000,,
1217,0.0000,,
1218,0.0000,,
1219,0.0000,,
1220,0.0000,,
1221,0.0000,,
1222,0.0000,,
1223,0.0000,,
1224,0.0000,,
1225,0.0000,,
1226,0.0000,,
1227,0.0000,,
1228,0.0000,,
1229,0.0000,,
1230,0.0000,,
1231,0.0000,,
1232,0.0000,,
1233,0.0000,,
1234,0.0000,,
1235,0.0000,,
1236,0.0000,,
1237,0.0000,,
1238,0.0000,,
1239,0.0000,,
1240,0.0000,,
1241,0.0000,,
1242,0.0000,,
1243,0.0000,,
1244,0.0000,,
1245,0.0000,,
1246,0.0000,,
1247,0.0000,,
1248,0.0000,,
1249,0.0000,,
1250,0.0000,,
1251,0.0000,,
1252,0.0000,,
1253,0.0000,,
1254,0.0000,,
1255,0.0000,,
1256,0.0000,,
1257,0.0000,,
1258,0.0000,,
1259,0.0000,,
1260,0.0000,,
1261,0.0000,,
1262,0.0000,,
1263,0.0000,,
1264,0.0000,,
1265,0.0000,,
1266,0.0000,,
1267,0.0000,,
1268,0.0000,,
1269,0.0000,,
1270,0.0000,,
1271,0.0000,,
1272,0.0000,,
1273,0.0000,,
1274,0.0000,,
1275,0.0000,,
1276,0.0000,,
1277,0.0000,,
1278,0.0000,,
1279,0.0000,,
1280,0.0000,,
1281,0.0000,,
1282,0.0000,,
1283,0.0000,,
1284,0.0000,,
1285,0.0000,,
1286,0.0000,,
1287,0.0000,,
1288,0.0000,,
1289,0.0000,,
1290,0.0000,,
1291,0.0000,,
1292,0.0000,,
1293,0.0000,,
1294,0.0000,,
1295,0.0000,,
1296,0.0000,,
1297,0.0000,,
1298,0.0000,,
1299,0.0000,,
1300,0.0000,,
1301,0.0000,,
1302,0.0000,,
1303,0.0000,,
1304,0.0000,,
1305,0.0000,,
1306,0.0000,,
1307,0.0000,,
1308,0.0000,,
1309,0.0000,,
1310,0.0000,,
1311,0.0000,,
1312,0.0000,,
1313,0.0000,,
1314,0.0000,,
1315,0.0000,,
1316,0.0000,,
1317,0.0000,,
1318,0.0000,,
1319,0.0000,,
1320,0.0000,,
1321,0.0000,,
1322,0.0000,,
1323,0.0000,,
1324,0.0000,,
1325,0.0000,,
1326,0.0000,,
1327,0.0000,,
1328,0.0000,,
1329,0.0000,,
1330,0.0000,,
1331,0.0000,,
1332,0.0000,,
1333,0.0000,,
1334,0.0000,,
1335,0.0000,,
1336,0.0000,,
1337,0.0000,,
1338,0.0000,,
1339,0.0000,,
1340,0.0000,,
1341,0.0000,,
1342,0.0000,,
1343,0.0000,,
1344,0.0000,,
1345,0.0000,,
1346,0.0000,,
1347,0.0000,,
1348,0.0000,,
1349,0.0000,,
1350,0.0000,,
1351,0.0000,,
1352,0.0000,,
1353,0.0000,,
1354,0.0000,,
1355,0.0000,,
1356,0.0000,,
1357,0.0000,,
1358,0.0000,,
1359,0.0000,,
1360,0.0000,,
1361,0.0000,,
1362,0.0000,,
1363,0.0000,,
1364,0.0000,,
1365,0.0000,,
1366,0.0000,,
1367,0.0000,,
1368,0.0000,,
1369,0.0000,,
1370,0.0000,,
1371,0.0000,,
1372,0.0000,,
1373,0.0000,,
1374,0.0000,,
1375,0.0000,,
1376,0.0000,,
1377,0.0000,,
1378,0.0000,,
1379,0.0000,,
1380,0.0000,,
1381,0.0000,,
1382,0.0000,,
1383,0.0000,,
1384,0.0000,,
1385,0.0000,,
1386,0.0000,,
1387,0.0000,,
1388,0.0000,,
1389,0.0000,,
1390,0.0000,,
1391,0.0000,,
1392,0.0000,,
1393,0.0000,,
1394,0.0000,,
1395,0.0000,,
1396,0.0000,,
1397,0.0000,,
1398,0.0000,,
1399,0.0000,,
1400,0.0000,,
1401,0.0000,,
1402,0.0000,,
1403,0.0000,,
1404,0.0000,,
1405,0.0000,,
1406,0.0000,,
1407,0.0000,,
1408,0.0000,,
1409,0.0000,,
1410,0.0000,,
1411,0.0000,,
1412,0.0000,,
1413,0.0000,,
1414,0.0000,,
1415,0.0000,,
1416,0.0000,,
1417,0.0000,,
1418,0.0000,,
1419,0.0000,,
1420,0.0000,,
1421,0.0000,,
1422,0.0000,,
1423,0.0000,,
1424,0.0000,,
1425,0.0000,,
1426,0.0000,,
1427,0.0000,,
1428,0.0000,,
1429,0.0000,,
1430,0.0000,,
1431,0.0000,,
1432,0.0000,,
1433,0.0000,,
1434,0.0000,,
1435,0.0000,,
1436,0.0000,,
1437,0.0000,,
1438,0.0000,,
1439,0.0000,,
1440,0.0000,,
1441,0.0000,,
1442,0.0000,,
1443,0.0000,,
1444,0.0000,,
1445,0.0000,,
1446,0.0000,,
1447,0.0000,,
1448,0.0000,,
1449,0.0000,,
1450,0.0000,,
1451,0.0000,,
1452,0.0000,,
1453,0.0000,,
1454,0.0000,,
1455,0.0000,,
1456,0.0000,,
1457,0.0000,,
1458,0.0000,,
1459,0.0000,,
1460,0.0000,,
1461,0.0000,,
1462,0.0000,,
1463,0.0000,,
1464,0.0000,,
1465,0.0000,,
1466,0.0000,,
1467,0.0000,,
1468,0.0000,,
1469,0.0000,,
1470,0.0000,,
1471,0.0000,,
1472,0.0000,,
1473,0.0000,,
1474,0.0000,,
1475,0.0000,,
1476,0.0000,,
1477,0.0000,,
1478,0.0000,,
1479,0.0000,,
1480,0.0000,,
1481,0.0000,,
1482,0.0000,,
1483,0.0000,,
1484,0.0000,,
1485,0.0000,,
1486,0.0000,,
1487,0.0000,,
1488,0.0000,,
1489,0.0000,,
1490,0.0000,,
1491,0.0000,,
1492,0.0000,,
1493,0.0000,,
1494,0.0000,,
1495,0.0000,,
1496,0.0000,,
1497,0.0000,,
1498,0.0000,,
1499,0.0000,,
1500,0.0000,,
1501,0.0000,,
1502,0.0000,,
1503,0.0000,,
1504,0.0000,,
1505,0.0000,,
1506,0.0000,,
1507,0.0000,,
1508,0.0000,,
1509,0.0000,,
1510,0.0000,,
1511,0.0000,,
1512,0.0000,,
1513,0.0000,,
1514,0.0000,,
1515,0.0000,,
1516,0.0000,,
1517,0.0000,,
1518,0.0000,,
1519,0.0000,,
1520,0.0000,,
1521,0.0000,,
1522,0.0000,,
1523,0.0000,,
1524,0.0000,,
1525,0.0000,,
1526,0.0000,,
1527,0.0000,,
1528,0.0000,,
1529,0.0000,,
1530,0.0000,,
1531,0.0000,,
1532,0.0000,,
1533,0.0000,,
1534,0.0000,,
1535,0.0000,,
1536,0.0000,,
1537,0.0000,,
1538,0.0000,,
1539,0.0000,,
1540,0.0000,,
1541,0.0000,,
1542,0.0000,,
1543,0.0000,,
1544,0.0000,,
1545,0.0000,,
1546,0.0000,,
1547,0.0000,,
1548,0.0000,,
1549,0.0000,,
1550,0.0000,,
1551,0.0000,,
1552,0.0000,,
1553,0.0000,,
1554,0.0000,,
1555,0.0000,,
1556,0.0000,,
1557,0.0000,,
1558,0.0000,,
1559,0.0000,,
1560,0.0000,,
1561,0.0000,,
1562,0.0000,,
1563,0.0000,,
1564,0.0000,,
1565,0.0000,,
1566,0.0000,,
1567,0.0000,,
1568,0.0000,,
1569,0.0000,,
1570,0.0000,,
1571,0.0000,,
1572,0.0000,,
1573,0.0000,,
1574,0.0000,,
1575,0.0000,,
1576,0.0000,,
1577,0.0000,,
1578,0.0000,,
1579,0.0000,,
1580,0.0000,,
1581,0.0000,,
1582,0.0000,,
1583,0.0000,,
1584,0.0000,,
1585,0.0000,,
1586,0.0000,,
1587,0.0000,,
1588,0.0000,,
1589,0.0000,,
1590,0.0000,,
1591,0.0000,,
1592,0.0000,,
1593,0.0000,,
1594,0.0000,,
1595,0.0000,,
1596,0.0000,,
1597,0.0000,,
1598,0.0000,,
1599,0.0000,,
1600,0.0000,,
1601,0.0000,,
1602,0.0000,,
1603,0.0000,,
1604,0.0000,,
1605,0.0000,,
1606,0.0000,,
1607,0.0000,,
1608,0.0000,,
1609,0.0000,,
1610,0.0000,,
1611,0.0000,,
1612,0.0000,,
1613,0.0000,,
1614,0.0000,,
1615,0.0000,,
1616,0.0000,,
1617,0.0000,,
1618,0.0000,,
1619,0.0000,,
1620,0.0000,,
1621,0.0000,,
1622,0.0000,,
1623,0.0000,,
1624,0.0000,,
1625,0.0000,,
1626,0.0000,,
1627,0.0000,,
1628,0.0000,,
1629,0.0000,,
1630,0.0000,,
1631,0.0000,,
1632,0.0000,,
1633,0.0000,,
1634,0.0000,,
1635,0.0000,,
1636,0.0000,,
1637,0.0000,,
1638,0.0000,,
1639,0.0000,,
1640,0.0000,,
1641,0.0000,,
1642,0.0000,,
1643,0.0000,,
1644,0.0000,,
1645,0.0000,,
1646,0.0000,,
1647,0.0000,,
1648,0.0000,,
1649,0.0000,,
1650,0.0000,,
1651,0.0000,,
1652,0.0000,,
1653,0.0000,,
1654,0.0000,,
1655,0.0000,,
1656,0.0000,,
1657,0.0000,,
1658,0.0000,,
1659,0.0000,,
1660,0.0000,,
1661,0.0000,,
1662,0.0000,,
1663,0.0000,,
1664,0.0000,,
1665,0.0000,,
1666,0.0000,,
1667,0.0000,,
1668,0.0000,,
1669,0.0000,,
1670,0.0000,,
1671,0.0000,,
1672,0.0000,,
1673,0.0000,,
1674,0.0000,,
1675,0.0000,,
1676,0.0000,,
1677,0.0000,,
1678,0.0000,,
1679,0.0000,,
1680,0.0000,,
1681,0.0000,,
1682,0.0000,,
1683,0.0000,,
1684,0.0000,,
1685,0.0000,,
1686,0.0000,,
1687,0.0000,,
1688,0.0000,,
1689,0.0000,,
1690,0.0000,,
1691,0.0000,,
1692,0.0000,,
1693,0.0000,,
1694,0.0000,,
1695,0.0000,,
1696,0.0000,,
1697,0.0000,,
1698,0.0000,,
1699,0.0000,,
1700,0.0000,,
1701,0.0000,,
1702,0.0000,,
1703,0.0000,,
1704,0.0000,,
1705,0.0000,,
1706,0.0000,,
1707,0.0000,,
1708,0.0000,,
1709,0.0000,,
1710,0.0000,,
1711,0.0000,,
1712,0.0000,,
1713,0.0000,,
1714,0.0000,,
1715,0.0000,,
1716,0.0000,,
1717,0.0000,,
1718,0.0000,,
1719,0.0000,,
1720,0.0000,,
1721,0.0000,,
1722,0.0000,,
1723,0.0000,,
1724,0.0000,,
1725,0.0000,,
1726,0.0000,,
1727,0.0000,,
1728,0.0000,,
1729,0.0000,,
1730,0.0000,,
1731,0.0000,,
1732,0.0000,,
1733,0.0000,,
1734,0.0000,,
1735,0.0000,,
1736,0.0000,,
1737,0.0000,,
1738,0.0000,,
1739,0.0000,,
1740,0.0000,,
1741,0.0000,,
1742,0.0000,,
1743,0.0000,,
1744,0.0000,,
1745,0.0000,,
1746,0.0000,,
1747,0.0000,,
1748,0.0000,,
1749,0.0000,,
1750,0.0000,,
1751,0.0000,,
1752,0.0000,,
1753,0.0000,,
1754,0.0000,,
1755,0.0000,,
1756,0.0000,,
1757,0.0000,,
1758,0.0000,,
1759,0.0000,,
1760,0.0000,,
1761,0.0000,,
1762,0.0000,,
1763,0.0000,,
1764,0.0000,,
1765,0.0000,,
1766,0.0000,,
1767,0.0000,,
1768,0.0000,,
1769,0.0000,,
1770,0.0000,,
1771,0.0000,,
1772,0.0000,,
1773,0.0000,,
1774,0.0000,,
1775,0.0000,,
1776,0.0000,,
1777,0.0000,,
1778,0.0000,,
1779,0.0000,,
1780,0.0000,,
1781,0.0000,,
1782,0.0000,,
1783,0.0000,,
1784,0.0000,,
1785,0.0000,,
1786,0.0000,,
1787,0.0000,,
1788,0.0000,,
1789,0.0000,,
1790,0.0000,,
1791,0.0000,,
1792,0.0000,,
1793,0.0000,,
1794,0.0000,,
1795,0.0000,,
1796,0.0000,,
1797,0.0000,,
1798,0.0000,,
1799,0.0000,,
1800,0.0000,,
1801,0.0000,,
1802,0.0000,,
1803,0.0000,,
1804,0.0000,,
1805,0.0000,,
1806,0.0000,,
1807,0.0000,,
1808,0.0000,,
1809,0.0000,,
1810,0.0000,,
1811,0.0000,,
1812,0.0000,,
1813,0.0000,,
1814,0.0000,,
1815,0.0000,,
1816,0.0000,,
1817,0.0000,,
1818,0.0000,,
1819,0.0000,,
1820,0.0000,,
1821,0.0000,,
1822,0.0000,,
1823,0.0000,,
1824,0.0000,,
1825,0.0000,,
1826,0.0000,,
1827,0.0000,,
1828,0.0000,,
1829,0.0000,,
1830,0.0000,,
1831,0.0000,,
1832,0.0000,,
1833,0.0000,,
1834,0.0000,,
1835,0.0000,,
1836,0.0000,,
1837,0.0000,,
1838,0.0000,,
1839,0.0000,,
1840,0.0000,,
1841,0.0000,,
1842,0.0000,,
1843,0.0000,,
1844,0.0000,,
1845,0.0000,,
1846,0.0000,,
1847,0.0000,,
1848,0.0000,,
1849,0.0000,,
1850,0.0000,,
1851,0.0000,,
1852,0.0000,,
1853,0.0000,,
1854,0.0000,,
1855,0.0000,,
1856,0.0000,,
1857,0.0000,,
1858,0.0000,,
1859,0.0000,,
1860,0.0000,,
1861,0.0000,,
1862,0.0000,,
1863,0.0000,,
1864,0.0000,,
1865,0.0000,,
1866,0.0000,,
1867,0.0000,,
1868,0.0000,,
1869,0.0000,,
1870,0.0000,,
1871,0.0000,,
1872,0.0000,,
1873,0.0000,,
1874,0.0000,,
1875,0.0000,,
1876,0.0000,,
1877,0.0000,,
1878,0.0000,,
1879,0.0000,,
1880,0.0000,,
1881,0.0000,,
1882,0.0000,,
1883,0.0000,,
1884,0.0000,,
1885,0.0000,,
1886,0.0000,,
1887,0.0000,,
1888,0.0000,,
1889,0.0000,,
1890,0.0000,,
1891,0.0000,,
1892,0.0000,,
1893,0.0000,,
1894,0.0000,,
1895,0.0000,,
1896,0.0000,,
1897,0.0000,,
1898,0.0000,,
1899,0.0000,,
1900,0.0000,,
1901,0.0000,,
1902,0.0000,,
1903,0.0000,,
1904,0.0000,,
1905,0.0000,,
1906,0.0000,,
1907,0.0000,,
1908,0.0000,,
1909,0.0000,,
1910,0.0000,,
1911,0.0000,,
1912,0.0000,,
1913,0.0000,,
1914,0.0000,,
1915,0.0000,,
1916,0.0000,,
1917,0.0000,,
1918,0.0000,,
1919,0.0000,,
1920,0.0000,,
1921,0.0000,,
1922,0.0000,,
1923,0.0000,,
1924,0.0000,,
1925,0.0000,,
1926,0.0000,,
1927,0.0000,,
1928,0.0000,,
1929,0.0000,,
1930,0.0000,,
1931,0.0000,,
1932,0.0000,,
1933,0.0000,,
1934,0.0000,,
1935,0.0000,,
1936,0.0000,,
1937,0.0000,,
1938,0.0000,,
1939,0.0000,,
1940,0.0000,,
1941,0.0000,,
1942,0.0000,,
1943,0.0000,,
1944,0.0000,,
1945,0.0000,,
1946,0.0000,,
1947,0.0000,,
1948,0.0000,,
1949,0.0000,,
1950,0.0000,,
1951,0.0000,,
1952,0.0000,,
1953,0.0000,,
1954,0.0000,,
1955,0.0000,,
1956,0.0000,,
1957,0.0000,,
1958,0.0000,,
1959,0.0000,,
1960,0.0000,,
1961,0.0000,,
1962,0.0000,,
1963,0.0000,,
1964,0.0000,,
1965,0.0000,,
1966,0.0000,,
1967,0.0000,,
1968,0.0000,,
1969,0.0000,,
1970,0.0000,,
1971,0.0000,,
1972,0.0000,,
1973,0.0000,,
1974,0.0000,,
1975,0.0000,,
1976,0.0000,,
1977,0.0000,,
1978,0.0000,,
1979,0.0000,,
1980,0.0000,,
1981,0.0000,,
1982,0.0000,,
1983,0.0000,,
1984,0.0000,,
1985,0.0000,,
1986,0.0000,,
1987,0.0000,,
1988,0.0000,,
1989,0.0000,,
1990,0.0000,,
1991,0.0000,,
1992,0.0000,,
1993,0.0000,,
1994,0.0000,,
1995,0.0000,,
1996,0.0000,,
1997,0.0000,,
1998,0.0000,,
1999,0.0000,,

[Histogram Data]
Binwidth,4
Particle Size (nm),Concentration (E6 particles / ml),,
2.0,0.0000,,
6.0,0.0000,,
10.0,0.0000,,
14.0,0.0000,,
18.0,0.2715,,
22.0,2.9868,,
26.0,5.8377,,
30.0,10.9152,,
34.0,12.1642,,
38.0,16.3185,,
42.0,15.3411,,
46.0,20.5271,,
50.0,16.3185,,
54.0,18.3278,,
58.0,22.7808,,
62.0,18.9252,,
66.0,18.6808,,
70.0,20.3099,,
74.0,16.6987,,
78.0,20.5814,,
82.0,24.8444,,
86.0,21.7490,,
90.0,21.2603,,
94.0,25.1159,,
98.0,26.4735,,
102.0,30.7907,,
106.0,21.3417,,
110.0,32.2298,,
114.0,27.9940,,
118.0,32.5556,,
122.0,17.5947,,
126.0,29.5960,,
130.0,27.1795,,
134.0,32.0126,,
138.0,29.6503,,
142.0,36.2212,,
146.0,30.9808,,
150.0,38.6377,,
154.0,26.6093,,
158.0,27.6139,,
162.0,38.7735,,
166.0,40.3755,,
170.0,47.9238,,
174.0,52.5126,,
178.0,32.1755,,
182.0,42.4119,,
186.0,25.8490,,
190.0,33.2887,,
194.0,28.2655,,
198.0,18.0563,,
202.0,20.9616,,
206.0,29.9218,,
210.0,11.5126,,
214.0,18.3550,,
218.0,19.2781,,
222.0,9.2318,,
226.0,29.9761,,
230.0,5.7563,,
234.0,20.2285,,
238.0,6.9510,,
242.0,6.5980,,
246.0,5.1318,,
250.0,2.8238,,
254.0,9.0960,,
258.0,3.0139,,
262.0,3.2311,,
266.0,2.3623,,
270.0,2.8238,,
274.0,2.0636,,
278.0,1.8735,,
282.0,0.9503,,
286.0,0.5974,,
290.0,1.1675,,
294.0,0.2715,,
298.0,1.2490,,
302.0,0.3258,,
306.0,1.1404,,
310.0,0.7603,,
314.0,5.4033,,
318.0,0.0000,,
322.0,0.0000,,
326.0,1.0318,,
330.0,0.6517,,
334.0,1.6020,,
338.0,0.0000,,
342.0,0.0000,,
346.0,0.0000,,
350.0,0.3530,,
354.0,0.0000,,
358.0,0.0000,,
362.0,0.6517,,
366.0,0.2715,,
370.0,0.0000,,
374.0,0.0000,,
378.0,0.0000,,
382.0,0.5974,,
386.0,0.3801,,
390.0,0.0000,,
394.0,0.0000,,
398.0,0.0000,,
402.0,0.0000,,
406.0,0.4344,,
410.0,0.0000,,
414.0,0.0000,,
418.0,0.5974,,
422.0,0.4616,,
426.0,0.0000,,
430.0,0.0000,,
434.0,0.0000,,
438.0,0.0000,,
442.0,0.0000,,
446.0,0.0000,,
450.0,0.0000,,
454.0,0.7331,,
458.0,0.0000,,
462.0,0.4887,,
466.0,0.0000,,
470.0,0.0000,,
474.0,0.0000,,
478.0,0.0000,,
482.0,0.0000,,
486.0,0.0000,,
490.0,0.0000,,
494.0,0.0000,,
498.0,0.0000,,
502.0,0.0000,,
506.0,0.0000,,
510.0,0.0000,,
514.0,0.0000,,
518.0,0.0000,,
522.0,0.0000,,
526.0,0.0000,,
530.0,0.0000,,
534.0,0.0000,,
538.0,0.0000,,
542.0,0.0000,,
546.0,0.0000,,
550.0,0.0000,,
554.0,0.0000,,
558.0,0.0000,,
562.0,0.0000,,
566.0,0.0000,,
570.0,0.0000,,
574.0,0.0000,,
578.0,0.0000,,
582.0,0.0000,,
586.0,0.0000,,
590.0,0.0000,,
594.0,0.0000,,
598.0,0.0000,,
602.0,0.0000,,
606.0,0.0000,,
610.0,0.0000,,
614.0,0.0000,,
618.0,0.0000,,
622.0,0.0000,,
626.0,0.0000,,
630.0,0.0000,,
634.0,0.0000,,
638.0,0.0000,,
642.0,0.0000,,
646.0,0.0000,,
650.0,0.0000,,
654.0,0.0000,,
658.0,0.0000,,
662.0,0.0000,,
666.0,0.0000,,
670.0,0.0000,,
674.0,0.0000,,
678.0,0.0000,,
682.0,0.0000,,
686.0,0.0000,,
690.0,0.0000,,
694.0,0.0000,,
698.0,0.0000,,
702.0,0.0000,,
706.0,0.0000,,
710.0,0.0000,,
714.0,0.0000,,
718.0,0.0000,,
722.0,0.0000,,
726.0,0.0000,,
730.0,0.0000,,
734.0,0.0000,,
738.0,0.0000,,
742.0,0.0000,,
746.0,0.0000,,
750.0,0.0000,,
754.0,0.0000,,
758.0,0.0000,,
762.0,0.0000,,
766.0,0.0000,,
770.0,0.0000,,
774.0,0.0000,,
778.0,0.0000,,
782.0,0.0000,,
786.0,0.0000,,
790.0,0.0000,,
794.0,0.0000,,
798.0,0.0000,,
802.0,0.0000,,
806.0,0.0000,,
810.0,0.0000,,
814.0,0.0000,,
818.0,0.0000,,
822.0,0.0000,,
826.0,0.0000,,
830.0,0.0000,,
834.0,0.0000,,
838.0,0.0000,,
842.0,0.0000,,
846.0,0.0000,,
850.0,0.0000,,
854.0,0.0000,,
858.0,0.0000,,
862.0,0.0000,,
866.0,0.0000,,
870.0,0.0000,,
874.0,0.0000,,
878.0,0.0000,,
882.0,0.0000,,
886.0,0.0000,,
890.0,0.0000,,
894.0,0.0000,,
898.0,0.0000,,
902.0,0.0000,,
906.0,0.0000,,
910.0,0.0000,,
914.0,0.0000,,
918.0,0.0000,,
922.0,0.0000,,
926.0,0.0000,,
930.0,0.0000,,
934.0,0.0000,,
938.0,0.0000,,
942.0,0.0000,,
946.0,0.0000,,
950.0,0.0000,,
954.0,0.0000,,
958.0,0.0000,,
962.0,0.0000,,
966.0,0.0000,,
970.0,0.0000,,
974.0,0.0000,,
978.0,0.0000,,
982.0,0.0000,,
986.0,0.0000,,
990.0,0.0000,,
994.0,0.0000,,
998.0,0.0000,,
1002.0,0.0000,,
1006.0,0.0000,,
1010.0,0.0000,,
1014.0,0.0000,,
1018.0,0.0000,,
1022.0,0.0000,,
1026.0,0.0000,,
1030.0,0.0000,,
1034.0,0.0000,,
1038.0,0.0000,,
1042.0,0.0000,,
1046.0,0.0000,,
1050.0,0.0000,,
1054.0,0.0000,,
1058.0,0.0000,,
1062.0,0.0000,,
1066.0,0.0000,,
1070.0,0.0000,,
1074.0,0.0000,,
1078.0,0.0000,,
1082.0,0.0000,,
1086.0,0.0000,,
1090.0,0.0000,,
1094.0,0.0000,,
1098.0,0.0000,,
1102.0,0.0000,,
1106.0,0.0000,,
1110.0,0.0000,,
1114.0,0.0000,,
1118.0,0.0000,,
1122.0,0.0000,,
1126.0,0.0000,,
1130.0,0.0000,,
1134.0,0.0000,,
1138.0,0.0000,,
1142.0,0.0000,,
1146.0,0.0000,,
1150.0,0.0000,,
1154.0,0.0000,,
1158.0,0.0000,,
1162.0,0.0000,,
1166.0,0.0000,,
1170.0,0.0000,,
1174.0,0.0000,,
1178.0,0.0000,,
1182.0,0.0000,,
1186.0,0.0000,,
1190.0,0.0000,,
1194.0,0.0000,,
1198.0,0.0000,,
1202.0,0.0000,,
1206.0,0.0000,,
1210.0,0.0000,,
1214.0,0.0000,,
1218.0,0.0000,,
1222.0,0.0000,,
1226.0,0.0000,,
1230.0,0.0000,,
1234.0,0.0000,,
1238.0,0.0000,,
1242.0,0.0000,,
1246.0,0.0000,,
1250.0,0.0000,,
1254.0,0.0000,,
1258.0,0.0000,,
1262.0,0.0000,,
1266.0,0.0000,,
1270.0,0.0000,,
1274.0,0.0000,,
1278.0,0.0000,,
1282.0,0.0000,,
1286.0,0.0000,,
1290.0,0.0000,,
1294.0,0.0000,,
1298.0,0.0000,,
1302.0,0.0000,,
1306.0,0.0000,,
1310.0,0.0000,,
1314.0,0.0000,,
1318.0,0.0000,,
1322.0,0.0000,,
1326.0,0.0000,,
1330.0,0.0000,,
1334.0,0.0000,,
1338.0,0.0000,,
1342.0,0.0000,,
1346.0,0.0000,,
1350.0,0.0000,,
1354.0,0.0000,,
1358.0,0.0000,,
1362.0,0.0000,,
1366.0,0.0000,,
1370.0,0.0000,,
1374.0,0.0000,,
1378.0,0.0000,,
1382.0,0.0000,,
1386.0,0.0000,,
1390.0,0.0000,,
1394.0,0.0000,,
1398.0,0.0000,,
1402.0,0.0000,,
1406.0,0.0000,,
1410.0,0.0000,,
1414.0,0.0000,,
1418.0,0.0000,,
1422.0,0.0000,,
1426.0,0.0000,,
1430.0,0.0000,,
1434.0,0.0000,,
1438.0,0.0000,,
1442.0,0.0000,,
1446.0,0.0000,,
1450.0,0.0000,,
1454.0,0.0000,,
1458.0,0.0000,,
1462.0,0.0000,,
1466.0,0.0000,,
1470.0,0.0000,,
1474.0,0.0000,,
1478.0,0.0000,,
1482.0,0.0000,,
1486.0,0.0000,,
1490.0,0.0000,,
1494.0,0.0000,,
1498.0,0.0000,,
1502.0,0.0000,,
1506.0,0.0000,,
1510.0,0.0000,,
1514.0,0.0000,,
1518.0,0.0000,,
1522.0,0.0000,,
1526.0,0.0000,,
1530.0,0.0000,,
1534.0,0.0000,,
1538.0,0.0000,,
1542.0,0.0000,,
1546.0,0.0000,,
1550.0,0.0000,,
1554.0,0.0000,,
1558.0,0.0000,,
1562.0,0.0000,,
1566.0,0.0000,,
1570.0,0.0000,,
1574.0,0.0000,,
1578.0,0.0000,,
1582.0,0.0000,,
1586.0,0.0000,,
1590.0,0.0000,,
1594.0,0.0000,,
1598.0,0.0000,,
1602.0,0.0000,,
1606.0,0.0000,,
1610.0,0.0000,,
1614.0,0.0000,,
1618.0,0.0000,,
1622.0,0.0000,,
1626.0,0.0000,,
1630.0,0.0000,,
1634.0,0.0000,,
1638.0,0.0000,,
1642.0,0.0000,,
1646.0,0.0000,,
1650.0,0.0000,,
1654.0,0.0000,,
1658.0,0.0000,,
1662.0,0.0000,,
1666.0,0.0000,,
1670.0,0.0000,,
1674.0,0.0000,,
1678.0,0.0000,,
1682.0,0.0000,,
1686.0,0.0000,,
1690.0,0.0000,,
1694.0,0.0000,,
1698.0,0.0000,,
1702.0,0.0000,,
1706.0,0.0000,,
1710.0,0.0000,,
1714.0,0.0000,,
1718.0,0.0000,,
1722.0,0.0000,,
1726.0,0.0000,,
1730.0,0.0000,,
1734.0,0.0000,,
1738.0,0.0000,,
1742.0,0.0000,,
1746.0,0.0000,,
1750.0,0.0000,,
1754.0,0.0000,,
1758.0,0.0000,,
1762.0,0.0000,,
1766.0,0.0000,,
1770.0,0.0000,,
1774.0,0.0000,,
1778.0,0.0000,,
1782.0,0.0000,,
1786.0,0.0000,,
1790.0,0.0000,,
1794.0,0.0000,,
1798.0,0.0000,,
1802.0,0.0000,,
1806.0,0.0000,,
1810.0,0.0000,,
1814.0,0.0000,,
1818.0,0.0000,,
1822.0,0.0000,,
1826.0,0.0000,,
1830.0,0.0000,,
1834.0,0.0000,,
1838.0,0.0000,,
1842.0,0.0000,,
1846.0,0.0000,,
1850.0,0.0000,,
1854.0,0.0000,,
1858.0,0.0000,,
1862.0,0.0000,,
1866.0,0.0000,,
1870.0,0.0000,,
1874.0,0.0000,,
1878.0,0.0000,,
1882.0,0.0000,,
1886.0,0.0000,,
1890.0,0.0000,,
1894.0,0.0000,,
1898.0,0.0000,,
1902.0,0.0000,,
1906.0,0.0000,,
1910.0,0.0000,,
1914.0,0.0000,,
1918.0,0.0000,,
1922.0,0.0000,,
1926.0,0.0000,,
1930.0,0.0000,,
1934.0,0.0000,,
1938.0,0.0000,,
1942.0,0.0000,,
1946.0,0.0000,,
1950.0,0.0000,,
1954.0,0.0000,,
1958.0,0.0000,,
1962.0,0.0000,,
1966.0,0.0000,,
1970.0,0.0000,,
1974.0,0.0000,,
1978.0,0.0000,,
1982.0,0.0000,,
1986.0,0.0000,,
1990.0,0.0000,,
1994.0,0.0000,,
1998.0,0.0000,,

[Percentile Undersize]
Percentile,Particle Size (nm),
0,13,
1,29,
2,34,
3,38,
4,41,
5,44,
6,47,
7,50,
8,53,
9,56,
10,59,
11,62,
12,64,
13,67,
14,70,
15,73,
16,76,
17,79,
18,81,
19,84,
20,86,
21,88,
22,91,
23,93,
24,95,
25,97,
26,99,
27,101,
28,104,
29,106,
30,107,
31,109,
32,111,
33,113,
34,115,
35,117,
36,119,
37,121,
38,123,
39,125,
40,127,
41,129,
42,131,
43,133,
44,135,
45,137,
46,139,
47,140,
48,142,
49,144,
50,146,
51,147,
52,149,
53,151,
54,152,
55,154,
56,155,
57,157,
58,159,
59,160,
60,162,
61,163,
62,165,
63,166,
64,167,
65,169,
66,170,
67,172,
68,173,
69,175,
70,176,
71,178,
72,179,
73,181,
74,182,
75,184,
76,185,
77,187,
78,189,
79,191,
80,193,
81,195,
82,197,
83,199,
84,202,
85,204,
86,207,
87,209,
88,212,
89,215,
90,219,
91,222,
92,226,
93,230,
94,235,
95,240,
96,247,
97,256,
98,271,
99,305,
100,582,

