[Software Info]
Build,NTA 2.3 build 0033

[Sample Information]
Operator,""
Sample Description,"coffee"
Diluent,"aqua dest."
Concentration,"1:19"
Pre-treatmeant,""
Comments,""

[Results Summary]
Total Frames,2700
Processed Frames,2700
Valid Tracks,6180
Overall Drift (nm/s),304.78
X-Drift (nm/s),272.34
Y-Drift (nm/s),136.82
Calibration (nm/pixel),166

Size Data - Concentration Weighted,
Mode (nm),177.00
Mean (nm),153.69
Standard Deviation (nm),57.62
Size data - Model Fit,
Mean (nm),0.00
Standard Deviation (nm),0.00

User Line 1,37
User Line 2,205
Average # centres/frame,83.52
Average # particles/frame,72.70
Equivalent particle concentration (E8 particles/ml),10.92
Selected average # particles/frame,59.08
Selected equivalent particle concentration (E8 particles/ml),8.87

[Settings],
Background Extract,On
Brightness,0
Gain,1.00
Blur Size,Auto,
Detection Threshold Type,Multi,
Detection Threshold,26
Min Track Length,Auto
Min Expected Size (nm),Auto

[Measurement Conditions]
Camera Type,CCD
Camera Shutter (ms),8.00
Camera Gain,500
Frame rate (fps),30.00
Temperature (°C),24.00
Viscosity (cP),0.909

[Warnings]
Low Completed Tracks,No
High Noise,1 frames
Auto max jump,Successful
Drift off,No
Settings Changed Whilst Processing,No
Vibration detected,Vibration detected >~10% error
Additional Errors,None

[Graph Data]
Particle Size (nm),Concentration (E6 particles / ml),,
0,0.0000,,
1,0.0000,,
2,0.0000,,
3,0.0000,,
4,0.0000,,
5,0.0000,,
6,0.0000,,
7,0.0000,,
8,0.0000,,
9,0.0000,,
10,0.0000,,
11,0.0000,,
12,0.0000,,
13,0.0000,,
14,0.0000,,
15,0.0000,,
16,0.0000,,
17,0.0004,,
18,0.0021,,
19,0.0077,,
20,0.0196,,
21,0.0358,,
22,0.0523,,
23,0.0712,,
24,0.1006,,
25,0.1470,,
26,0.2110,,
27,0.2890,,
28,0.3781,,
29,0.4805,,
30,0.6018,,
31,0.7453,,
32,0.9086,,
33,1.0837,,
34,1.2571,,
35,1.4146,,
36,1.5453,,
37,1.6472,,
38,1.7289,,
39,1.8037,,
40,1.8829,,
41,1.9698,,
42,2.0591,,
43,2.1426,,
44,2.2139,,
45,2.2713,,
46,2.3181,,
47,2.3600,,
48,2.4023,,
49,2.4489,,
50,2.5016,,
51,2.5606,,
52,2.6251,,
53,2.6932,,
54,2.7631,,
55,2.8325,,
56,2.8988,,
57,2.9599,,
58,3.0141,,
59,3.0607,,
60,3.1007,,
61,3.1362,,
62,3.1701,,
63,3.2045,,
64,3.2407,,
65,3.2791,,
66,3.3186,,
67,3.3570,,
68,3.3923,,
69,3.4224,,
70,3.4455,,
71,3.4607,,
72,3.4671,,
73,3.4651,,
74,3.4556,,
75,3.4401,,
76,3.4210,,
77,3.4012,,
78,3.3838,,
79,3.3724,,
80,3.3705,,
81,3.3809,,
82,3.4057,,
83,3.4461,,
84,3.5021,,
85,3.5730,,
86,3.6564,,
87,3.7495,,
88,3.8494,,
89,3.9523,,
90,4.0553,,
91,4.1559,,
92,4.2519,,
93,4.3424,,
94,4.4271,,
95,4.5066,,
96,4.5817,,
97,4.6536,,
98,4.7239,,
99,4.7937,,
100,4.8640,,
101,4.9350,,
102,5.0069,,
103,5.0792,,
104,5.1510,,
105,5.2210,,
106,5.2884,,
107,5.3518,,
108,5.4103,,
109,5.4632,,
110,5.5102,,
111,5.5507,,
112,5.5852,,
113,5.6137,,
114,5.6369,,
115,5.6554,,
116,5.6699,,
117,5.6811,,
118,5.6899,,
119,5.6969,,
120,5.7029,,
121,5.7086,,
122,5.7148,,
123,5.7219,,
124,5.7307,,
125,5.7417,,
126,5.7554,,
127,5.7722,,
128,5.7925,,
129,5.8168,,
130,5.8450,,
131,5.8775,,
132,5.9146,,
133,5.9561,,
134,6.0017,,
135,6.0518,,
136,6.1058,,
137,6.1636,,
138,6.2246,,
139,6.2884,,
140,6.3546,,
141,6.4223,,
142,6.4910,,
143,6.5599,,
144,6.6281,,
145,6.6950,,
146,6.7599,,
147,6.8222,,
148,6.8813,,
149,6.9367,,
150,6.9881,,
151,7.0355,,
152,7.0790,,
153,7.1186,,
154,7.1547,,
155,7.1878,,
156,7.2186,,
157,7.2477,,
158,7.2757,,
159,7.3034,,
160,7.3314,,
161,7.3604,,
162,7.3906,,
163,7.4224,,
164,7.4559,,
165,7.4912,,
166,7.5280,,
167,7.5658,,
168,7.6041,,
169,7.6420,,
170,7.6789,,
171,7.7137,,
172,7.7454,,
173,7.7729,,
174,7.7953,,
175,7.8117,,
176,7.8212,,
177,7.8229,,
178,7.8161,,
179,7.8005,,
180,7.7757,,
181,7.7413,,
182,7.6974,,
183,7.6440,,
184,7.5816,,
185,7.5104,,
186,7.4308,,
187,7.3435,,
188,7.2491,,
189,7.1483,,
190,7.0421,,
191,6.9310,,
192,6.8156,,
193,6.6969,,
194,6.5755,,
195,6.4521,,
196,6.3272,,
197,6.2013,,
198,6.0750,,
199,5.9487,,
200,5.8227,,
201,5.6973,,
202,5.5728,,
203,5.4495,,
204,5.3276,,
205,5.2071,,
206,5.0882,,
207,4.9711,,
208,4.8558,,
209,4.7425,,
210,4.6311,,
211,4.5218,,
212,4.4147,,
213,4.3098,,
214,4.2073,,
215,4.1071,,
216,4.0093,,
217,3.9140,,
218,3.8213,,
219,3.7310,,
220,3.6433,,
221,3.5582,,
222,3.4755,,
223,3.3955,,
224,3.3179,,
225,3.2426,,
226,3.1695,,
227,3.0986,,
228,3.0299,,
229,2.9630,,
230,2.8979,,
231,2.8344,,
232,2.7722,,
233,2.7115,,
234,2.6519,,
235,2.5931,,
236,2.5351,,
237,2.4778,,
238,2.4209,,
239,2.3643,,
240,2.3080,,
241,2.2518,,
242,2.1957,,
243,2.1395,,
244,2.0832,,
245,2.0269,,
246,1.9705,,
247,1.9141,,
248,1.8576,,
249,1.8011,,
250,1.7448,,
251,1.6886,,
252,1.6327,,
253,1.5771,,
254,1.5219,,
255,1.4673,,
256,1.4135,,
257,1.3604,,
258,1.3082,,
259,1.2570,,
260,1.2070,,
261,1.1581,,
262,1.1105,,
263,1.0642,,
264,1.0193,,
265,0.9759,,
266,0.9340,,
267,0.8936,,
268,0.8547,,
269,0.8173,,
270,0.7815,,
271,0.7473,,
272,0.7145,,
273,0.6832,,
274,0.6534,,
275,0.6250,,
276,0.5980,,
277,0.5723,,
278,0.5479,,
279,0.5247,,
280,0.5028,,
281,0.4819,,
282,0.4622,,
283,0.4435,,
284,0.4258,,
285,0.4090,,
286,0.3931,,
287,0.3780,,
288,0.3637,,
289,0.3502,,
290,0.3375,,
291,0.3254,,
292,0.3139,,
293,0.3030,,
294,0.2927,,
295,0.2830,,
296,0.2737,,
297,0.2649,,
298,0.2566,,
299,0.2487,,
300,0.2411,,
301,0.2340,,
302,0.2271,,
303,0.2206,,
304,0.2144,,
305,0.2085,,
306,0.2028,,
307,0.1974,,
308,0.1922,,
309,0.1872,,
310,0.1825,,
311,0.1778,,
312,0.1734,,
313,0.1691,,
314,0.1650,,
315,0.1610,,
316,0.1571,,
317,0.1534,,
318,0.1498,,
319,0.1462,,
320,0.1428,,
321,0.1394,,
322,0.1362,,
323,0.1330,,
324,0.1299,,
325,0.1269,,
326,0.1240,,
327,0.1211,,
328,0.1183,,
329,0.1156,,
330,0.1130,,
331,0.1104,,
332,0.1079,,
333,0.1054,,
334,0.1030,,
335,0.1007,,
336,0.0984,,
337,0.0962,,
338,0.0941,,
339,0.0920,,
340,0.0899,,
341,0.0879,,
342,0.0860,,
343,0.0841,,
344,0.0823,,
345,0.0805,,
346,0.0787,,
347,0.0770,,
348,0.0754,,
349,0.0737,,
350,0.0721,,
351,0.0706,,
352,0.0691,,
353,0.0676,,
354,0.0661,,
355,0.0646,,
356,0.0632,,
357,0.0618,,
358,0.0604,,
359,0.0590,,
360,0.0577,,
361,0.0563,,
362,0.0550,,
363,0.0537,,
364,0.0524,,
365,0.0511,,
366,0.0499,,
367,0.0486,,
368,0.0474,,
369,0.0461,,
370,0.0449,,
371,0.0437,,
372,0.0425,,
373,0.0413,,
374,0.0402,,
375,0.0390,,
376,0.0379,,
377,0.0368,,
378,0.0356,,
379,0.0346,,
380,0.0335,,
381,0.0325,,
382,0.0314,,
383,0.0304,,
384,0.0295,,
385,0.0285,,
386,0.0276,,
387,0.0267,,
388,0.0258,,
389,0.0249,,
390,0.0241,,
391,0.0233,,
392,0.0225,,
393,0.0218,,
394,0.0211,,
395,0.0204,,
396,0.0197,,
397,0.0191,,
398,0.0185,,
399,0.0179,,
400,0.0173,,
401,0.0168,,
402,0.0163,,
403,0.0158,,
404,0.0154,,
405,0.0150,,
406,0.0146,,
407,0.0142,,
408,0.0138,,
409,0.0135,,
410,0.0132,,
411,0.0129,,
412,0.0127,,
413,0.0124,,
414,0.0122,,
415,0.0120,,
416,0.0118,,
417,0.0116,,
418,0.0114,,
419,0.0113,,
420,0.0112,,
421,0.0110,,
422,0.0109,,
423,0.0108,,
424,0.0108,,
425,0.0107,,
426,0.0106,,
427,0.0106,,
428,0.0105,,
429,0.0105,,
430,0.0105,,
431,0.0105,,
432,0.0105,,
433,0.0105,,
434,0.0105,,
435,0.0105,,
436,0.0105,,
437,0.0105,,
438,0.0106,,
439,0.0106,,
440,0.0106,,
441,0.0106,,
442,0.0107,,
443,0.0107,,
444,0.0108,,
445,0.0108,,
446,0.0108,,
447,0.0109,,
448,0.0109,,
449,0.0110,,
450,0.0110,,
451,0.0110,,
452,0.0111,,
453,0.0111,,
454,0.0111,,
455,0.0112,,
456,0.0112,,
457,0.0112,,
458,0.0112,,
459,0.0112,,
460,0.0112,,
461,0.0112,,
462,0.0112,,
463,0.0112,,
464,0.0112,,
465,0.0112,,
466,0.0112,,
467,0.0111,,
468,0.0111,,
469,0.0111,,
470,0.0110,,
471,0.0110,,
472,0.0109,,
473,0.0108,,
474,0.0108,,
475,0.0107,,
476,0.0106,,
477,0.0105,,
478,0.0104,,
479,0.0103,,
480,0.0102,,
481,0.0101,,
482,0.0100,,
483,0.0099,,
484,0.0097,,
485,0.0096,,
486,0.0095,,
487,0.0093,,
488,0.0092,,
489,0.0090,,
490,0.0089,,
491,0.0087,,
492,0.0086,,
493,0.0084,,
494,0.0082,,
495,0.0081,,
496,0.0079,,
497,0.0077,,
498,0.0076,,
499,0.0074,,
500,0.0072,,
501,0.0070,,
502,0.0068,,
503,0.0067,,
504,0.0065,,
505,0.0063,,
506,0.0061,,
507,0.0060,,
508,0.0058,,
509,0.0056,,
510,0.0054,,
511,0.0053,,
512,0.0051,,
513,0.0049,,
514,0.0047,,
515,0.0046,,
516,0.0044,,
517,0.0043,,
518,0.0041,,
519,0.0039,,
520,0.0038,,
521,0.0036,,
522,0.0035,,
523,0.0034,,
524,0.0032,,
525,0.0031,,
526,0.0029,,
527,0.0028,,
528,0.0027,,
529,0.0026,,
530,0.0024,,
531,0.0023,,
532,0.0022,,
533,0.0021,,
534,0.0020,,
535,0.0019,,
536,0.0018,,
537,0.0017,,
538,0.0016,,
539,0.0015,,
540,0.0015,,
541,0.0014,,
542,0.0013,,
543,0.0012,,
544,0.0012,,
545,0.0011,,
546,0.0010,,
547,0.0010,,
548,0.0009,,
549,0.0009,,
550,0.0008,,
551,0.0008,,
552,0.0007,,
553,0.0007,,
554,0.0006,,
555,0.0006,,
556,0.0005,,
557,0.0005,,
558,0.0005,,
559,0.0004,,
560,0.0004,,
561,0.0004,,
562,0.0004,,
563,0.0003,,
564,0.0003,,
565,0.0003,,
566,0.0003,,
567,0.0002,,
568,0.0002,,
569,0.0002,,
570,0.0002,,
571,0.0002,,
572,0.0002,,
573,0.0001,,
574,0.0001,,
575,0.0001,,
576,0.0001,,
577,0.0001,,
578,0.0001,,
579,0.0001,,
580,0.0001,,
581,0.0001,,
582,0.0001,,
583,0.0001,,
584,0.0001,,
585,0.0001,,
586,0.0000,,
587,0.0000,,
588,0.0000,,
589,0.0000,,
590,0.0000,,
591,0.0000,,
592,0.0000,,
593,0.0000,,
594,0.0000,,
595,0.0000,,
596,0.0000,,
597,0.0000,,
598,0.0000,,
599,0.0000,,
600,0.0000,,
601,0.0000,,
602,0.0000,,
603,0.0000,,
604,0.0000,,
605,0.0000,,
606,0.0000,,
607,0.0000,,
608,0.0000,,
609,0.0000,,
610,0.0000,,
611,0.0000,,
612,0.0000,,
613,0.0000,,
614,0.0000,,
615,0.0000,,
616,0.0000,,
617,0.0000,,
618,0.0000,,
619,0.0000,,
620,0.0000,,
621,0.0000,,
622,0.0000,,
623,0.0000,,
624,0.0000,,
625,0.0000,,
626,0.0000,,
627,0.0000,,
628,0.0000,,
629,0.0000,,
630,0.0000,,
631,0.0000,,
632,0.0000,,
633,0.0000,,
634,0.0000,,
635,0.0000,,
636,0.0000,,
637,0.0000,,
638,0.0000,,
639,0.0000,,
640,0.0000,,
641,0.0000,,
642,0.0000,,
643,0.0000,,
644,0.0000,,
645,0.0000,,
646,0.0000,,
647,0.0000,,
648,0.0000,,
649,0.0000,,
650,0.0000,,
651,0.0000,,
652,0.0000,,
653,0.0000,,
654,0.0000,,
655,0.0000,,
656,0.0000,,
657,0.0000,,
658,0.0000,,
659,0.0000,,
660,0.0000,,
661,0.0000,,
662,0.0000,,
663,0.0000,,
664,0.0000,,
665,0.0000,,
666,0.0000,,
667,0.0000,,
668,0.0000,,
669,0.0000,,
670,0.0000,,
671,0.0000,,
672,0.0000,,
673,0.0000,,
674,0.0000,,
675,0.0000,,
676,0.0000,,
677,0.0000,,
678,0.0000,,
679,0.0000,,
680,0.0000,,
681,0.0000,,
682,0.0000,,
683,0.0000,,
684,0.0000,,
685,0.0000,,
686,0.0000,,
687,0.0000,,
688,0.0000,,
689,0.0000,,
690,0.0000,,
691,0.0000,,
692,0.0000,,
693,0.0000,,
694,0.0000,,
695,0.0000,,
696,0.0000,,
697,0.0000,,
698,0.0000,,
699,0.0000,,
700,0.0000,,
701,0.0000,,
702,0.0000,,
703,0.0000,,
704,0.0000,,
705,0.0000,,
706,0.0000,,
707,0.0000,,
708,0.0000,,
709,0.0000,,
710,0.0000,,
711,0.0000,,
712,0.0000,,
713,0.0000,,
714,0.0000,,
715,0.0000,,
716,0.0000,,
717,0.0000,,
718,0.0000,,
719,0.0000,,
720,0.0000,,
721,0.0000,,
722,0.0000,,
723,0.0000,,
724,0.0000,,
725,0.0000,,
726,0.0000,,
727,0.0000,,
728,0.0000,,
729,0.0000,,
730,0.0000,,
731,0.0000,,
732,0.0000,,
733,0.0000,,
734,0.0000,,
735,0.0000,,
736,0.0000,,
737,0.0000,,
738,0.0000,,
739,0.0000,,
740,0.0000,,
741,0.0000,,
742,0.0000,,
743,0.0000,,
744,0.0000,,
745,0.0000,,
746,0.0000,,
747,0.0000,,
748,0.0000,,
749,0.0000,,
750,0.0000,,
751,0.0000,,
752,0.0000,,
753,0.0000,,
754,0.0000,,
755,0.0000,,
756,0.0000,,
757,0.0000,,
758,0.0000,,
759,0.0000,,
760,0.0000,,
761,0.0000,,
762,0.0000,,
763,0.0000,,
764,0.0000,,
765,0.0000,,
766,0.0000,,
767,0.0000,,
768,0.0000,,
769,0.0000,,
770,0.0000,,
771,0.0000,,
772,0.0000,,
773,0.0000,,
774,0.0000,,
775,0.0000,,
776,0.0000,,
777,0.0000,,
778,0.0000,,
779,0.0000,,
780,0.0000,,
781,0.0000,,
782,0.0000,,
783,0.0000,,
784,0.0000,,
785,0.0000,,
786,0.0000,,
787,0.0000,,
788,0.0000,,
789,0.0000,,
790,0.0000,,
791,0.0000,,
792,0.0000,,
793,0.0000,,
794,0.0000,,
795,0.0000,,
796,0.0000,,
797,0.0000,,
798,0.0000,,
799,0.0000,,
800,0.0000,,
801,0.0000,,
802,0.0000,,
803,0.0000,,
804,0.0000,,
805,0.0000,,
806,0.0000,,
807,0.0000,,
808,0.0000,,
809,0.0000,,
810,0.0000,,
811,0.0000,,
812,0.0000,,
813,0.0000,,
814,0.0000,,
815,0.0000,,
816,0.0000,,
817,0.0000,,
818,0.0000,,
819,0.0000,,
820,0.0000,,
821,0.0000,,
822,0.0000,,
823,0.0000,,
824,0.0000,,
825,0.0000,,
826,0.0000,,
827,0.0000,,
828,0.0000,,
829,0.0000,,
830,0.0000,,
831,0.0000,,
832,0.0000,,
833,0.0000,,
834,0.0000,,
835,0.0000,,
836,0.0000,,
837,0.0000,,
838,0.0000,,
839,0.0000,,
840,0.0000,,
841,0.0000,,
842,0.0000,,
843,0.0000,,
844,0.0000,,
845,0.0000,,
846,0.0000,,
847,0.0000,,
848,0.0000,,
849,0.0000,,
850,0.0000,,
851,0.0000,,
852,0.0000,,
853,0.0000,,
854,0.0000,,
855,0.0000,,
856,0.0000,,
857,0.0000,,
858,0.0000,,
859,0.0000,,
860,0.0000,,
861,0.0000,,
862,0.0000,,
863,0.0000,,
864,0.0000,,
865,0.0000,,
866,0.0000,,
867,0.0000,,
868,0.0000,,
869,0.0000,,
870,0.0000,,
871,0.0000,,
872,0.0000,,
873,0.0000,,
874,0.0000,,
875,0.0000,,
876,0.0000,,
877,0.0000,,
878,0.0000,,
879,0.0000,,
880,0.0000,,
881,0.0000,,
882,0.0000,,
883,0.0000,,
884,0.0000,,
885,0.0000,,
886,0.0000,,
887,0.0000,,
888,0.0000,,
889,0.0000,,
890,0.0000,,
891,0.0000,,
892,0.0000,,
893,0.0000,,
894,0.0000,,
895,0.0000,,
896,0.0000,,
897,0.0000,,
898,0.0000,,
899,0.0000,,
900,0.0000,,
901,0.0000,,
902,0.0000,,
903,0.0000,,
904,0.0000,,
905,0.0000,,
906,0.0000,,
907,0.0000,,
908,0.0000,,
909,0.0000,,
910,0.0000,,
911,0.0000,,
912,0.0000,,
913,0.0000,,
914,0.0000,,
915,0.0000,,
916,0.0000,,
917,0.0000,,
918,0.0000,,
919,0.0000,,
920,0.0000,,
921,0.0000,,
922,0.0000,,
923,0.0000,,
924,0.0000,,
925,0.0000,,
926,0.0000,,
927,0.0000,,
928,0.0000,,
929,0.0000,,
930,0.0000,,
931,0.0000,,
932,0.0000,,
933,0.0000,,
934,0.0000,,
935,0.0000,,
936,0.0000,,
937,0.0000,,
938,0.0000,,
939,0.0000,,
940,0.0000,,
941,0.0000,,
942,0.0000,,
943,0.0000,,
944,0.0000,,
945,0.0000,,
946,0.0000,,
947,0.0000,,
948,0.0000,,
949,0.0000,,
950,0.0000,,
951,0.0000,,
952,0.0000,,
953,0.0000,,
954,0.0000,,
955,0.0000,,
956,0.0000,,
957,0.0000,,
958,0.0000,,
959,0.0000,,
960,0.0000,,
961,0.0000,,
962,0.0000,,
963,0.0000,,
964,0.0000,,
965,0.0000,,
966,0.0000,,
967,0.0000,,
968,0.0000,,
969,0.0000,,
970,0.0000,,
971,0.0000,,
972,0.0000,,
973,0.0000,,
974,0.0000,,
975,0.0000,,
976,0.0000,,
977,0.0000,,
978,0.0000,,
979,0.0000,,
980,0.0000,,
981,0.0000,,
982,0.0000,,
983,0.0000,,
984,0.0000,,
985,0.0000,,
986,0.0000,,
987,0.0000,,
988,0.0000,,
989,0.0000,,
990,0.0000,,
991,0.0000,,
992,0.0000,,
993,0.0000,,
994,0.0000,,
995,0.0000,,
996,0.0000,,
997,0.0000,,
998,0.0000,,
999,0.0000,,
1000,0.0000,,
1001,0.0000,,
1002,0.0000,,
1003,0.0000,,
1004,0.0000,,
1005,0.0000,,
1006,0.0000,,
1007,0.0000,,
1008,0.0000,,
1009,0.0000,,
1010,0.0000,,
1011,0.0000,,
1012,0.0000,,
1013,0.0000,,
1014,0.0000,,
1015,0.0000,,
1016,0.0000,,
1017,0.0000,,
1018,0.0000,,
1019,0.0000,,
1020,0.0000,,
1021,0.0000,,
1022,0.0000,,
1023,0.0000,,
1024,0.0000,,
1025,0.0000,,
1026,0.0000,,
1027,0.0000,,
1028,0.0000,,
1029,0.0000,,
1030,0.0000,,
1031,0.0000,,
1032,0.0000,,
1033,0.0000,,
1034,0.0000,,
1035,0.0000,,
1036,0.0000,,
1037,0.0000,,
1038,0.0000,,
1039,0.0000,,
1040,0.0000,,
1041,0.0000,,
1042,0.0000,,
1043,0.0000,,
1044,0.0000,,
1045,0.0000,,
1046,0.0000,,
1047,0.0000,,
1048,0.0000,,
1049,0.0000,,
1050,0.0000,,
1051,0.0000,,
1052,0.0000,,
1053,0.0000,,
1054,0.0000,,
1055,0.0000,,
1056,0.0000,,
1057,0.0000,,
1058,0.0000,,
1059,0.0000,,
1060,0.0000,,
1061,0.0000,,
1062,0.0000,,
1063,0.0000,,
1064,0.0000,,
1065,0.0000,,
1066,0.0000,,
1067,0.0000,,
1068,0.0000,,
1069,0.0000,,
1070,0.0000,,
1071,0.0000,,
1072,0.0000,,
1073,0.0000,,
1074,0.0000,,
1075,0.0000,,
1076,0.0000,,
1077,0.0000,,
1078,0.0000,,
1079,0.0000,,
1080,0.0000,,
1081,0.0000,,
1082,0.0000,,
1083,0.0000,,
1084,0.0000,,
1085,0.0000,,
1086,0.0000,,
1087,0.0000,,
1088,0.0000,,
1089,0.0000,,
1090,0.0000,,
1091,0.0000,,
1092,0.0000,,
1093,0.0000,,
1094,0.0000,,
1095,0.0000,,
1096,0.0000,,
1097,0.0000,,
1098,0.0000,,
1099,0.0000,,
1100,0.0000,,
1101,0.0000,,
1102,0.0000,,
1103,0.0000,,
1104,0.0000,,
1105,0.0000,,
1106,0.0000,,
1107,0.0000,,
1108,0.0000,,
1109,0.0000,,
1110,0.0000,,
1111,0.0000,,
1112,0.0000,,
1113,0.0000,,
1114,0.0000,,
1115,0.0000,,
1116,0.0000,,
1117,0.0000,,
1118,0.0000,,
1119,0.0000,,
1120,0.0000,,
1121,0.0000,,
1122,0.0000,,
1123,0.0000,,
1124,0.0000,,
1125,0.0000,,
1126,0.0000,,
1127,0.0000,,
1128,0.0000,,
1129,0.0000,,
1130,0.0000,,
1131,0.0000,,
1132,0.0000,,
1133,0.0000,,
1134,0.0000,,
1135,0.0000,,
1136,0.0000,,
1137,0.0000,,
1138,0.0000,,
1139,0.0000,,
1140,0.0000,,
1141,0.0000,,
1142,0.0000,,
1143,0.0000,,
1144,0.0000,,
1145,0.0000,,
1146,0.0000,,
1147,0.0000,,
1148,0.0000,,
1149,0.0000,,
1150,0.0000,,
1151,0.0000,,
1152,0.0000,,
1153,0.0000,,
1154,0.0000,,
1155,0.0000,,
1156,0.0000,,
1157,0.0000,,
1158,0.0000,,
1159,0.0000,,
1160,0.0000,,
1161,0.0000,,
1162,0.0000,,
1163,0.0000,,
1164,0.0000,,
1165,0.0000,,
1166,0.0000,,
1167,0.0000,,
1168,0.0000,,
1169,0.0000,,
1170,0.0000,,
1171,0.0000,,
1172,0.0000,,
1173,0.0000,,
1174,0.0000,,
1175,0.0000,,
1176,0.0000,,
1177,0.0000,,
1178,0.0000,,
1179,0.0000,,
1180,0.0000,,
1181,0.0000,,
1182,0.0000,,
1183,0.0000,,
1184,0.0000,,
1185,0.0000,,
1186,0.0000,,
1187,0.0000,,
1188,0.0000,,
1189,0.0000,,
1190,0.0000,,
1191,0.0000,,
1192,0.0000,,
1193,0.0000,,
1194,0.0000,,
1195,0.0000,,
1196,0.0000,,
1197,0.0000,,
1198,0.0000,,
1199,0.0000,,
1200,0.0000,,
1201,0.0000,,
1202,0.0000,,
1203,0.0000,,
1204,0.0000,,
1205,0.0000,,
1206,0.0000,,
1207,0.0000,,
1208,0.0000,,
1209,0.0000,,
1210,0.0000,,
1211,0.0000,,
1212,0.0000,,
1213,0.0000,,
1214,0.0000,,
1215,0.0000,,
1216,0.0000,,
1217,0.0000,,
1218,0.0000,,
1219,0.0000,,
1220,0.0000,,
1221,0.0000,,
1222,0.0000,,
1223,0.0000,,
1224,0.0000,,
1225,0.0000,,
1226,0.0000,,
1227,0.0000,,
1228,0.0000,,
1229,0.0000,,
1230,0.0000,,
1231,0.0000,,
1232,0.0000,,
1233,0.0000,,
1234,0.0000,,
1235,0.0000,,
1236,0.0000,,
1237,0.0000,,
1238,0.0000,,
1239,0.0000,,
1240,0.0000,,
1241,0.0000,,
1242,0.0000,,
1243,0.0000,,
1244,0.0000,,
1245,0.0000,,
1246,0.0000,,
1247,0.0000,,
1248,0.0000,,
1249,0.0000,,
1250,0.0000,,
1251,0.0000,,
1252,0.0000,,
1253,0.0000,,
1254,0.0000,,
1255,0.0000,,
1256,0.0000,,
1257,0.0000,,
1258,0.0000,,
1259,0.0000,,
1260,0.0000,,
1261,0.0000,,
1262,0.0000,,
1263,0.0000,,
1264,0.0000,,
1265,0.0000,,
1266,0.0000,,
1267,0.0000,,
1268,0.0000,,
1269,0.0000,,
1270,0.0000,,
1271,0.0000,,
1272,0.0000,,
1273,0.0000,,
1274,0.0000,,
1275,0.0000,,
1276,0.0000,,
1277,0.0000,,
1278,0.0000,,
1279,0.0000,,
1280,0.0000,,
1281,0.0000,,
1282,0.0000,,
1283,0.0000,,
1284,0.0000,,
1285,0.0000,,
1286,0.0000,,
1287,0.0000,,
1288,0.0000,,
1289,0.0000,,
1290,0.0000,,
1291,0.0000,,
1292,0.0000,,
1293,0.0000,,
1294,0.0000,,
1295,0.0000,,
1296,0.0000,,
1297,0.0000,,
1298,0.0000,,
1299,0.0000,,
1300,0.0000,,
1301,0.0000,,
1302,0.0000,,
1303,0.0000,,
1304,0.0000,,
1305,0.0000,,
1306,0.0000,,
1307,0.0000,,
1308,0.0000,,
1309,0.0000,,
1310,0.0000,,
1311,0.0000,,
1312,0.0000,,
1313,0.0000,,
1314,0.0000,,
1315,0.0000,,
1316,0.0000,,
1317,0.0000,,
1318,0.0000,,
1319,0.0000,,
1320,0.0000,,
1321,0.0000,,
1322,0.0000,,
1323,0.0000,,
1324,0.0000,,
1325,0.0000,,
1326,0.0000,,
1327,0.0000,,
1328,0.0000,,
1329,0.0000,,
1330,0.0000,,
1331,0.0000,,
1332,0.0000,,
1333,0.0000,,
1334,0.0000,,
1335,0.0000,,
1336,0.0000,,
1337,0.0000,,
1338,0.0000,,
1339,0.0000,,
1340,0.0000,,
1341,0.0000,,
1342,0.0000,,
1343,0.0000,,
1344,0.0000,,
1345,0.0000,,
1346,0.0000,,
1347,0.0000,,
1348,0.0000,,
1349,0.0000,,
1350,0.0000,,
1351,0.0000,,
1352,0.0000,,
1353,0.0000,,
1354,0.0000,,
1355,0.0000,,
1356,0.0000,,
1357,0.0000,,
1358,0.0000,,
1359,0.0000,,
1360,0.0000,,
1361,0.0000,,
1362,0.0000,,
1363,0.0000,,
1364,0.0000,,
1365,0.0000,,
1366,0.0000,,
1367,0.0000,,
1368,0.0000,,
1369,0.0000,,
1370,0.0000,,
1371,0.0000,,
1372,0.0000,,
1373,0.0000,,
1374,0.0000,,
1375,0.0000,,
1376,0.0000,,
1377,0.0000,,
1378,0.0000,,
1379,0.0000,,
1380,0.0000,,
1381,0.0000,,
1382,0.0000,,
1383,0.0000,,
1384,0.0000,,
1385,0.0000,,
1386,0.0000,,
1387,0.0000,,
1388,0.0000,,
1389,0.0000,,
1390,0.0000,,
1391,0.0000,,
1392,0.0000,,
1393,0.0000,,
1394,0.0000,,
1395,0.0000,,
1396,0.0000,,
1397,0.0000,,
1398,0.0000,,
1399,0.0000,,
1400,0.0000,,
1401,0.0000,,
1402,0.0000,,
1403,0.0000,,
1404,0.0000,,
1405,0.0000,,
1406,0.0000,,
1407,0.0000,,
1408,0.0000,,
1409,0.0000,,
1410,0.0000,,
1411,0.0000,,
1412,0.0000,,
1413,0.0000,,
1414,0.0000,,
1415,0.0000,,
1416,0.0000,,
1417,0.0000,,
1418,0.0000,,
1419,0.0000,,
1420,0.0000,,
1421,0.0000,,
1422,0.0000,,
1423,0.0000,,
1424,0.0000,,
1425,0.0000,,
1426,0.0000,,
1427,0.0000,,
1428,0.0000,,
1429,0.0000,,
1430,0.0000,,
1431,0.0000,,
1432,0.0000,,
1433,0.0000,,
1434,0.0000,,
1435,0.0000,,
1436,0.0000,,
1437,0.0000,,
1438,0.0000,,
1439,0.0000,,
1440,0.0000,,
1441,0.0000,,
1442,0.0000,,
1443,0.0000,,
1444,0.0000,,
1445,0.0000,,
1446,0.0000,,
1447,0.0000,,
1448,0.0000,,
1449,0.0000,,
1450,0.0000,,
1451,0.0000,,
1452,0.0000,,
1453,0.0000,,
1454,0.0000,,
1455,0.0000,,
1456,0.0000,,
1457,0.0000,,
1458,0.0000,,
1459,0.0000,,
1460,0.0000,,
1461,0.0000,,
1462,0.0000,,
1463,0.0000,,
1464,0.0000,,
1465,0.0000,,
1466,0.0000,,
1467,0.0000,,
1468,0.0000,,
1469,0.0000,,
1470,0.0000,,
1471,0.0000,,
1472,0.0000,,
1473,0.0000,,
1474,0.0000,,
1475,0.0000,,
1476,0.0000,,
1477,0.0000,,
1478,0.0000,,
1479,0.0000,,
1480,0.0000,,
1481,0.0000,,
1482,0.0000,,
1483,0.0000,,
1484,0.0000,,
1485,0.0000,,
1486,0.0000,,
1487,0.0000,,
1488,0.0000,,
1489,0.0000,,
1490,0.0000,,
1491,0.0000,,
1492,0.0000,,
1493,0.0000,,
1494,0.0000,,
1495,0.0000,,
1496,0.0000,,
1497,0.0000,,
1498,0.0000,,
1499,0.0000,,
1500,0.0000,,
1501,0.0000,,
1502,0.0000,,
1503,0.0000,,
1504,0.0000,,
1505,0.0000,,
1506,0.0000,,
1507,0.0000,,
1508,0.0000,,
1509,0.0000,,
1510,0.0000,,
1511,0.0000,,
1512,0.0000,,
1513,0.0000,,
1514,0.0000,,
1515,0.0000,,
1516,0.0000,,
1517,0.0000,,
1518,0.0000,,
1519,0.0000,,
1520,0.0000,,
1521,0.0000,,
1522,0.0000,,
1523,0.0000,,
1524,0.0000,,
1525,0.0000,,
1526,0.0000,,
1527,0.0000,,
1528,0.0000,,
1529,0.0000,,
1530,0.0000,,
1531,0.0000,,
1532,0.0000,,
1533,0.0000,,
1534,0.0000,,
1535,0.0000,,
1536,0.0000,,
1537,0.0000,,
1538,0.0000,,
1539,0.0000,,
1540,0.0000,,
1541,0.0000,,
1542,0.0000,,
1543,0.0000,,
1544,0.0000,,
1545,0.0000,,
1546,0.0000,,
1547,0.0000,,
1548,0.0000,,
1549,0.0000,,
1550,0.0000,,
1551,0.0000,,
1552,0.0000,,
1553,0.0000,,
1554,0.0000,,
1555,0.0000,,
1556,0.0000,,
1557,0.0000,,
1558,0.0000,,
1559,0.0000,,
1560,0.0000,,
1561,0.0000,,
1562,0.0000,,
1563,0.0000,,
1564,0.0000,,
1565,0.0000,,
1566,0.0000,,
1567,0.0000,,
1568,0.0000,,
1569,0.0000,,
1570,0.0000,,
1571,0.0000,,
1572,0.0000,,
1573,0.0000,,
1574,0.0000,,
1575,0.0000,,
1576,0.0000,,
1577,0.0000,,
1578,0.0000,,
1579,0.0000,,
1580,0.0000,,
1581,0.0000,,
1582,0.0000,,
1583,0.0000,,
1584,0.0000,,
1585,0.0000,,
1586,0.0000,,
1587,0.0000,,
1588,0.0000,,
1589,0.0000,,
1590,0.0000,,
1591,0.0000,,
1592,0.0000,,
1593,0.0000,,
1594,0.0000,,
1595,0.0000,,
1596,0.0000,,
1597,0.0000,,
1598,0.0000,,
1599,0.0000,,
1600,0.0000,,
1601,0.0000,,
1602,0.0000,,
1603,0.0000,,
1604,0.0000,,
1605,0.0000,,
1606,0.0000,,
1607,0.0000,,
1608,0.0000,,
1609,0.0000,,
1610,0.0000,,
1611,0.0000,,
1612,0.0000,,
1613,0.0000,,
1614,0.0000,,
1615,0.0000,,
1616,0.0000,,
1617,0.0000,,
1618,0.0000,,
1619,0.0000,,
1620,0.0000,,
1621,0.0000,,
1622,0.0000,,
1623,0.0000,,
1624,0.0000,,
1625,0.0000,,
1626,0.0000,,
1627,0.0000,,
1628,0.0000,,
1629,0.0000,,
1630,0.0000,,
1631,0.0000,,
1632,0.0000,,
1633,0.0000,,
1634,0.0000,,
1635,0.0000,,
1636,0.0000,,
1637,0.0000,,
1638,0.0000,,
1639,0.0000,,
1640,0.0000,,
1641,0.0000,,
1642,0.0000,,
1643,0.0000,,
1644,0.0000,,
1645,0.0000,,
1646,0.0000,,
1647,0.0000,,
1648,0.0000,,
1649,0.0000,,
1650,0.0000,,
1651,0.0000,,
1652,0.0000,,
1653,0.0000,,
1654,0.0000,,
1655,0.0000,,
1656,0.0000,,
1657,0.0000,,
1658,0.0000,,
1659,0.0000,,
1660,0.0000,,
1661,0.0000,,
1662,0.0000,,
1663,0.0000,,
1664,0.0000,,
1665,0.0000,,
1666,0.0000,,
1667,0.0000,,
1668,0.0000,,
1669,0.0000,,
1670,0.0000,,
1671,0.0000,,
1672,0.0000,,
1673,0.0000,,
1674,0.0000,,
1675,0.0000,,
1676,0.0000,,
1677,0.0000,,
1678,0.0000,,
1679,0.0000,,
1680,0.0000,,
1681,0.0000,,
1682,0.0000,,
1683,0.0000,,
1684,0.0000,,
1685,0.0000,,
1686,0.0000,,
1687,0.0000,,
1688,0.0000,,
1689,0.0000,,
1690,0.0000,,
1691,0.0000,,
1692,0.0000,,
1693,0.0000,,
1694,0.0000,,
1695,0.0000,,
1696,0.0000,,
1697,0.0000,,
1698,0.0000,,
1699,0.0000,,
1700,0.0000,,
1701,0.0000,,
1702,0.0000,,
1703,0.0000,,
1704,0.0000,,
1705,0.0000,,
1706,0.0000,,
1707,0.0000,,
1708,0.0000,,
1709,0.0000,,
1710,0.0000,,
1711,0.0000,,
1712,0.0000,,
1713,0.0000,,
1714,0.0000,,
1715,0.0000,,
1716,0.0000,,
1717,0.0000,,
1718,0.0000,,
1719,0.0000,,
1720,0.0000,,
1721,0.0000,,
1722,0.0000,,
1723,0.0000,,
1724,0.0000,,
1725,0.0000,,
1726,0.0000,,
1727,0.0000,,
1728,0.0000,,
1729,0.0000,,
1730,0.0000,,
1731,0.0000,,
1732,0.0000,,
1733,0.0000,,
1734,0.0000,,
1735,0.0000,,
1736,0.0000,,
1737,0.0000,,
1738,0.0000,,
1739,0.0000,,
1740,0.0000,,
1741,0.0000,,
1742,0.0000,,
1743,0.0000,,
1744,0.0000,,
1745,0.0000,,
1746,0.0000,,
1747,0.0000,,
1748,0.0000,,
1749,0.0000,,
1750,0.0000,,
1751,0.0000,,
1752,0.0000,,
1753,0.0000,,
1754,0.0000,,
1755,0.0000,,
1756,0.0000,,
1757,0.0000,,
1758,0.0000,,
1759,0.0000,,
1760,0.0000,,
1761,0.0000,,
1762,0.0000,,
1763,0.0000,,
1764,0.0000,,
1765,0.0000,,
1766,0.0000,,
1767,0.0000,,
1768,0.0000,,
1769,0.0000,,
1770,0.0000,,
1771,0.0000,,
1772,0.0000,,
1773,0.0000,,
1774,0.0000,,
1775,0.0000,,
1776,0.0000,,
1777,0.0000,,
1778,0.0000,,
1779,0.0000,,
1780,0.0000,,
1781,0.0000,,
1782,0.0000,,
1783,0.0000,,
1784,0.0000,,
1785,0.0000,,
1786,0.0000,,
1787,0.0000,,
1788,0.0000,,
1789,0.0000,,
1790,0.0000,,
1791,0.0000,,
1792,0.0000,,
1793,0.0000,,
1794,0.0000,,
1795,0.0000,,
1796,0.0000,,
1797,0.0000,,
1798,0.0000,,
1799,0.0000,,
1800,0.0000,,
1801,0.0000,,
1802,0.0000,,
1803,0.0000,,
1804,0.0000,,
1805,0.0000,,
1806,0.0000,,
1807,0.0000,,
1808,0.0000,,
1809,0.0000,,
1810,0.0000,,
1811,0.0000,,
1812,0.0000,,
1813,0.0000,,
1814,0.0000,,
1815,0.0000,,
1816,0.0000,,
1817,0.0000,,
1818,0.0000,,
1819,0.0000,,
1820,0.0000,,
1821,0.0000,,
1822,0.0000,,
1823,0.0000,,
1824,0.0000,,
1825,0.0000,,
1826,0.0000,,
1827,0.0000,,
1828,0.0000,,
1829,0.0000,,
1830,0.0000,,
1831,0.0000,,
1832,0.0000,,
1833,0.0000,,
1834,0.0000,,
1835,0.0000,,
1836,0.0000,,
1837,0.0000,,
1838,0.0000,,
1839,0.0000,,
1840,0.0000,,
1841,0.0000,,
1842,0.0000,,
1843,0.0000,,
1844,0.0000,,
1845,0.0000,,
1846,0.0000,,
1847,0.0000,,
1848,0.0000,,
1849,0.0000,,
1850,0.0000,,
1851,0.0000,,
1852,0.0000,,
1853,0.0000,,
1854,0.0000,,
1855,0.0000,,
1856,0.0000,,
1857,0.0000,,
1858,0.0000,,
1859,0.0000,,
1860,0.0000,,
1861,0.0000,,
1862,0.0000,,
1863,0.0000,,
1864,0.0000,,
1865,0.0000,,
1866,0.0000,,
1867,0.0000,,
1868,0.0000,,
1869,0.0000,,
1870,0.0000,,
1871,0.0000,,
1872,0.0000,,
1873,0.0000,,
1874,0.0000,,
1875,0.0000,,
1876,0.0000,,
1877,0.0000,,
1878,0.0000,,
1879,0.0000,,
1880,0.0000,,
1881,0.0000,,
1882,0.0000,,
1883,0.0000,,
1884,0.0000,,
1885,0.0000,,
1886,0.0000,,
1887,0.0000,,
1888,0.0000,,
1889,0.0000,,
1890,0.0000,,
1891,0.0000,,
1892,0.0000,,
1893,0.0000,,
1894,0.0000,,
1895,0.0000,,
1896,0.0000,,
1897,0.0000,,
1898,0.0000,,
1899,0.0000,,
1900,0.0000,,
1901,0.0000,,
1902,0.0000,,
1903,0.0000,,
1904,0.0000,,
1905,0.0000,,
1906,0.0000,,
1907,0.0000,,
1908,0.0000,,
1909,0.0000,,
1910,0.0000,,
1911,0.0000,,
1912,0.0000,,
1913,0.0000,,
1914,0.0000,,
1915,0.0000,,
1916,0.0000,,
1917,0.0000,,
1918,0.0000,,
1919,0.0000,,
1920,0.0000,,
1921,0.0000,,
1922,0.0000,,
1923,0.0000,,
1924,0.0000,,
1925,0.0000,,
1926,0.0000,,
1927,0.0000,,
1928,0.0000,,
1929,0.0000,,
1930,0.0000,,
1931,0.0000,,
1932,0.0000,,
1933,0.0000,,
1934,0.0000,,
1935,0.0000,,
1936,0.0000,,
1937,0.0000,,
1938,0.0000,,
1939,0.0000,,
1940,0.0000,,
1941,0.0000,,
1942,0.0000,,
1943,0.0000,,
1944,0.0000,,
1945,0.0000,,
1946,0.0000,,
1947,0.0000,,
1948,0.0000,,
1949,0.0000,,
1950,0.0000,,
1951,0.0000,,
1952,0.0000,,
1953,0.0000,,
1954,0.0000,,
1955,0.0000,,
1956,0.0000,,
1957,0.0000,,
1958,0.0000,,
1959,0.0000,,
1960,0.0000,,
1961,0.0000,,
1962,0.0000,,
1963,0.0000,,
1964,0.0000,,
1965,0.0000,,
1966,0.0000,,
1967,0.0000,,
1968,0.0000,,
1969,0.0000,,
1970,0.0000,,
1971,0.0000,,
1972,0.0000,,
1973,0.0000,,
1974,0.0000,,
1975,0.0000,,
1976,0.0000,,
1977,0.0000,,
1978,0.0000,,
1979,0.0000,,
1980,0.0000,,
1981,0.0000,,
1982,0.0000,,
1983,0.0000,,
1984,0.0000,,
1985,0.0000,,
1986,0.0000,,
1987,0.0000,,
1988,0.0000,,
1989,0.0000,,
1990,0.0000,,
1991,0.0000,,
1992,0.0000,,
1993,0.0000,,
1994,0.0000,,
1995,0.0000,,
1996,0.0000,,
1997,0.0000,,
1998,0.0000,,
1999,0.0000,,

[Histogram Data]
Binwidth,4
Particle Size (nm),Concentration (E6 particles / ml),,
2.0,0.0000,,
6.0,0.0000,,
10.0,0.0000,,
14.0,0.0000,,
18.0,0.0000,,
22.0,0.1206,,
26.0,0.6595,,
30.0,1.7935,,
34.0,4.6245,,
38.0,6.6432,,
42.0,7.9220,,
46.0,9.5225,,
50.0,9.1525,,
54.0,10.7449,,
58.0,12.6108,,
62.0,11.8226,,
66.0,13.6564,,
70.0,12.7717,,
74.0,15.0879,,
78.0,14.5973,,
82.0,10.1337,,
86.0,13.1255,,
90.0,15.8681,,
94.0,20.4282,,
98.0,17.2836,,
102.0,17.9029,,
106.0,22.1252,,
110.0,23.9670,,
114.0,20.8867,,
118.0,24.5219,,
122.0,21.1682,,
126.0,21.1038,,
130.0,24.4978,,
134.0,22.8652,,
138.0,21.6829,,
142.0,25.2860,,
146.0,23.6372,,
150.0,33.5618,,
154.0,31.5029,,
158.0,32.0739,,
162.0,20.3317,,
166.0,26.6613,,
170.0,29.5084,,
174.0,35.5081,,
178.0,34.4304,,
182.0,43.5025,,
186.0,32.0739,,
190.0,25.7283,,
194.0,26.3717,,
198.0,22.8330,,
202.0,27.7229,,
206.0,20.3880,,
210.0,15.8279,,
214.0,20.2352,,
218.0,12.9406,,
222.0,12.4419,,
226.0,13.9379,,
230.0,10.4956,,
234.0,4.6406,,
238.0,11.1229,,
242.0,18.0798,,
246.0,12.3615,,
250.0,3.3699,,
254.0,4.2304,,
258.0,2.7104,,
262.0,2.7425,,
266.0,6.2009,,
270.0,1.8015,,
274.0,1.5603,,
278.0,1.8739,,
282.0,1.2305,,
286.0,1.6970,,
290.0,0.6595,,
294.0,0.3539,,
298.0,1.1340,,
302.0,1.0295,,
306.0,0.6273,,
310.0,0.7640,,
314.0,0.2815,,
318.0,1.4718,,
322.0,0.5308,,
326.0,0.2895,,
330.0,0.0804,,
334.0,0.2815,,
338.0,0.3297,,
342.0,0.2091,,
346.0,0.1689,,
350.0,0.0885,,
354.0,0.6595,,
358.0,0.7078,,
362.0,0.3700,,
366.0,0.0000,,
370.0,0.1287,,
374.0,0.0000,,
378.0,0.1287,,
382.0,0.0000,,
386.0,0.1287,,
390.0,0.0000,,
394.0,0.0965,,
398.0,0.0000,,
402.0,0.1528,,
406.0,0.0000,,
410.0,0.0000,,
414.0,0.0000,,
418.0,0.1046,,
422.0,0.0000,,
426.0,0.0000,,
430.0,0.0000,,
434.0,0.1448,,
438.0,0.0000,,
442.0,0.0000,,
446.0,0.0000,,
450.0,0.0000,,
454.0,0.0000,,
458.0,0.1126,,
462.0,0.2413,,
466.0,0.1206,,
470.0,0.0000,,
474.0,0.0000,,
478.0,0.0000,,
482.0,0.0000,,
486.0,0.2091,,
490.0,0.1448,,
494.0,0.0000,,
498.0,0.0000,,
502.0,0.0000,,
506.0,0.0000,,
510.0,0.0000,,
514.0,0.0000,,
518.0,0.0000,,
522.0,0.0000,,
526.0,0.0000,,
530.0,0.0000,,
534.0,0.0000,,
538.0,0.0000,,
542.0,0.0000,,
546.0,0.0000,,
550.0,0.0000,,
554.0,0.0000,,
558.0,0.0000,,
562.0,0.0000,,
566.0,0.0000,,
570.0,0.0000,,
574.0,0.0000,,
578.0,0.0000,,
582.0,0.0000,,
586.0,0.0000,,
590.0,0.0000,,
594.0,0.0000,,
598.0,0.0000,,
602.0,0.0000,,
606.0,0.0000,,
610.0,0.0000,,
614.0,0.0000,,
618.0,0.0000,,
622.0,0.0000,,
626.0,0.0000,,
630.0,0.0000,,
634.0,0.0000,,
638.0,0.0000,,
642.0,0.0000,,
646.0,0.0000,,
650.0,0.0000,,
654.0,0.0000,,
658.0,0.0000,,
662.0,0.0000,,
666.0,0.0000,,
670.0,0.0000,,
674.0,0.0000,,
678.0,0.0000,,
682.0,0.0000,,
686.0,0.0000,,
690.0,0.0000,,
694.0,0.0000,,
698.0,0.0000,,
702.0,0.0000,,
706.0,0.0000,,
710.0,0.0000,,
714.0,0.0000,,
718.0,0.0000,,
722.0,0.0000,,
726.0,0.0000,,
730.0,0.0000,,
734.0,0.0000,,
738.0,0.0000,,
742.0,0.0000,,
746.0,0.0000,,
750.0,0.0000,,
754.0,0.0000,,
758.0,0.0000,,
762.0,0.0000,,
766.0,0.0000,,
770.0,0.0000,,
774.0,0.0000,,
778.0,0.0000,,
782.0,0.0000,,
786.0,0.0000,,
790.0,0.0000,,
794.0,0.0000,,
798.0,0.0000,,
802.0,0.0000,,
806.0,0.0000,,
810.0,0.0000,,
814.0,0.0000,,
818.0,0.0000,,
822.0,0.0000,,
826.0,0.0000,,
830.0,0.0000,,
834.0,0.0000,,
838.0,0.0000,,
842.0,0.0000,,
846.0,0.0000,,
850.0,0.0000,,
854.0,0.0000,,
858.0,0.0000,,
862.0,0.0000,,
866.0,0.0000,,
870.0,0.0000,,
874.0,0.0000,,
878.0,0.0000,,
882.0,0.0000,,
886.0,0.0000,,
890.0,0.0000,,
894.0,0.0000,,
898.0,0.0000,,
902.0,0.0000,,
906.0,0.0000,,
910.0,0.0000,,
914.0,0.0000,,
918.0,0.0000,,
922.0,0.0000,,
926.0,0.0000,,
930.0,0.0000,,
934.0,0.0000,,
938.0,0.0000,,
942.0,0.0000,,
946.0,0.0000,,
950.0,0.0000,,
954.0,0.0000,,
958.0,0.0000,,
962.0,0.0000,,
966.0,0.0000,,
970.0,0.0000,,
974.0,0.0000,,
978.0,0.0000,,
982.0,0.0000,,
986.0,0.0000,,
990.0,0.0000,,
994.0,0.0000,,
998.0,0.0000,,
1002.0,0.0000,,
1006.0,0.0000,,
1010.0,0.0000,,
1014.0,0.0000,,
1018.0,0.0000,,
1022.0,0.0000,,
1026.0,0.0000,,
1030.0,0.0000,,
1034.0,0.0000,,
1038.0,0.0000,,
1042.0,0.0000,,
1046.0,0.0000,,
1050.0,0.0000,,
1054.0,0.0000,,
1058.0,0.0000,,
1062.0,0.0000,,
1066.0,0.0000,,
1070.0,0.0000,,
1074.0,0.0000,,
1078.0,0.0000,,
1082.0,0.0000,,
1086.0,0.0000,,
1090.0,0.0000,,
1094.0,0.0000,,
1098.0,0.0000,,
1102.0,0.0000,,
1106.0,0.0000,,
1110.0,0.0000,,
1114.0,0.0000,,
1118.0,0.0000,,
1122.0,0.0000,,
1126.0,0.0000,,
1130.0,0.0000,,
1134.0,0.0000,,
1138.0,0.0000,,
1142.0,0.0000,,
1146.0,0.0000,,
1150.0,0.0000,,
1154.0,0.0000,,
1158.0,0.0000,,
1162.0,0.0000,,
1166.0,0.0000,,
1170.0,0.0000,,
1174.0,0.0000,,
1178.0,0.0000,,
1182.0,0.0000,,
1186.0,0.0000,,
1190.0,0.0000,,
1194.0,0.0000,,
1198.0,0.0000,,
1202.0,0.0000,,
1206.0,0.0000,,
1210.0,0.0000,,
1214.0,0.0000,,
1218.0,0.0000,,
1222.0,0.0000,,
1226.0,0.0000,,
1230.0,0.0000,,
1234.0,0.0000,,
1238.0,0.0000,,
1242.0,0.0000,,
1246.0,0.0000,,
1250.0,0.0000,,
1254.0,0.0000,,
1258.0,0.0000,,
1262.0,0.0000,,
1266.0,0.0000,,
1270.0,0.0000,,
1274.0,0.0000,,
1278.0,0.0000,,
1282.0,0.0000,,
1286.0,0.0000,,
1290.0,0.0000,,
1294.0,0.0000,,
1298.0,0.0000,,
1302.0,0.0000,,
1306.0,0.0000,,
1310.0,0.0000,,
1314.0,0.0000,,
1318.0,0.0000,,
1322.0,0.0000,,
1326.0,0.0000,,
1330.0,0.0000,,
1334.0,0.0000,,
1338.0,0.0000,,
1342.0,0.0000,,
1346.0,0.0000,,
1350.0,0.0000,,
1354.0,0.0000,,
1358.0,0.0000,,
1362.0,0.0000,,
1366.0,0.0000,,
1370.0,0.0000,,
1374.0,0.0000,,
1378.0,0.0000,,
1382.0,0.0000,,
1386.0,0.0000,,
1390.0,0.0000,,
1394.0,0.0000,,
1398.0,0.0000,,
1402.0,0.0000,,
1406.0,0.0000,,
1410.0,0.0000,,
1414.0,0.0000,,
1418.0,0.0000,,
1422.0,0.0000,,
1426.0,0.0000,,
1430.0,0.0000,,
1434.0,0.0000,,
1438.0,0.0000,,
1442.0,0.0000,,
1446.0,0.0000,,
1450.0,0.0000,,
1454.0,0.0000,,
1458.0,0.0000,,
1462.0,0.0000,,
1466.0,0.0000,,
1470.0,0.0000,,
1474.0,0.0000,,
1478.0,0.0000,,
1482.0,0.0000,,
1486.0,0.0000,,
1490.0,0.0000,,
1494.0,0.0000,,
1498.0,0.0000,,
1502.0,0.0000,,
1506.0,0.0000,,
1510.0,0.0000,,
1514.0,0.0000,,
1518.0,0.0000,,
1522.0,0.0000,,
1526.0,0.0000,,
1530.0,0.0000,,
1534.0,0.0000,,
1538.0,0.0000,,
1542.0,0.0000,,
1546.0,0.0000,,
1550.0,0.0000,,
1554.0,0.0000,,
1558.0,0.0000,,
1562.0,0.0000,,
1566.0,0.0000,,
1570.0,0.0000,,
1574.0,0.0000,,
1578.0,0.0000,,
1582.0,0.0000,,
1586.0,0.0000,,
1590.0,0.0000,,
1594.0,0.0000,,
1598.0,0.0000,,
1602.0,0.0000,,
1606.0,0.0000,,
1610.0,0.0000,,
1614.0,0.0000,,
1618.0,0.0000,,
1622.0,0.0000,,
1626.0,0.0000,,
1630.0,0.0000,,
1634.0,0.0000,,
1638.0,0.0000,,
1642.0,0.0000,,
1646.0,0.0000,,
1650.0,0.0000,,
1654.0,0.0000,,
1658.0,0.0000,,
1662.0,0.0000,,
1666.0,0.0000,,
1670.0,0.0000,,
1674.0,0.0000,,
1678.0,0.0000,,
1682.0,0.0000,,
1686.0,0.0000,,
1690.0,0.0000,,
1694.0,0.0000,,
1698.0,0.0000,,
1702.0,0.0000,,
1706.0,0.0000,,
1710.0,0.0000,,
1714.0,0.0000,,
1718.0,0.0000,,
1722.0,0.0000,,
1726.0,0.0000,,
1730.0,0.0000,,
1734.0,0.0000,,
1738.0,0.0000,,
1742.0,0.0000,,
1746.0,0.0000,,
1750.0,0.0000,,
1754.0,0.0000,,
1758.0,0.0000,,
1762.0,0.0000,,
1766.0,0.0000,,
1770.0,0.0000,,
1774.0,0.0000,,
1778.0,0.0000,,
1782.0,0.0000,,
1786.0,0.0000,,
1790.0,0.0000,,
1794.0,0.0000,,
1798.0,0.0000,,
1802.0,0.0000,,
1806.0,0.0000,,
1810.0,0.0000,,
1814.0,0.0000,,
1818.0,0.0000,,
1822.0,0.0000,,
1826.0,0.0000,,
1830.0,0.0000,,
1834.0,0.0000,,
1838.0,0.0000,,
1842.0,0.0000,,
1846.0,0.0000,,
1850.0,0.0000,,
1854.0,0.0000,,
1858.0,0.0000,,
1862.0,0.0000,,
1866.0,0.0000,,
1870.0,0.0000,,
1874.0,0.0000,,
1878.0,0.0000,,
1882.0,0.0000,,
1886.0,0.0000,,
1890.0,0.0000,,
1894.0,0.0000,,
1898.0,0.0000,,
1902.0,0.0000,,
1906.0,0.0000,,
1910.0,0.0000,,
1914.0,0.0000,,
1918.0,0.0000,,
1922.0,0.0000,,
1926.0,0.0000,,
1930.0,0.0000,,
1934.0,0.0000,,
1938.0,0.0000,,
1942.0,0.0000,,
1946.0,0.0000,,
1950.0,0.0000,,
1954.0,0.0000,,
1958.0,0.0000,,
1962.0,0.0000,,
1966.0,0.0000,,
1970.0,0.0000,,
1974.0,0.0000,,
1978.0,0.0000,,
1982.0,0.0000,,
1986.0,0.0000,,
1990.0,0.0000,,
1994.0,0.0000,,
1998.0,0.0000,,

[Percentile Undersize]
Percentile,Particle Size (nm),
0,16,
1,37,
2,43,
3,48,
4,52,
5,56,
6,60,
7,63,
8,67,
9,70,
10,73,
11,76,
12,79,
13,83,
14,86,
15,89,
16,91,
17,94,
18,96,
19,99,
20,101,
21,103,
22,105,
23,107,
24,109,
25,111,
26,113,
27,115,
28,117,
29,119,
30,121,
31,123,
32,125,
33,127,
34,128,
35,130,
36,132,
37,134,
38,136,
39,138,
40,139,
41,141,
42,143,
43,144,
44,146,
45,148,
46,149,
47,151,
48,152,
49,154,
50,155,
51,157,
52,158,
53,160,
54,161,
55,163,
56,164,
57,166,
58,167,
59,169,
60,170,
61,171,
62,173,
63,174,
64,176,
65,177,
66,178,
67,180,
68,181,
69,183,
70,184,
71,186,
72,187,
73,189,
74,190,
75,192,
76,193,
77,195,
78,197,
79,198,
80,200,
81,202,
82,204,
83,206,
84,209,
85,211,
86,213,
87,216,
88,219,
89,222,
90,225,
91,229,
92,232,
93,237,
94,241,
95,246,
96,253,
97,260,
98,272,
99,297,
100,618,

