[Software Info]
Build,NTA 2.3 build 0033

[Sample Information]
Operator,""
Sample Description,"coffee"
Diluent,"aqua dest."
Concentration,"1:9"
Pre-treatmeant,""
Comments,""

[Results Summary]
Total Frames,900
Processed Frames,900
Valid Tracks,3394
Overall Drift (nm/s),365.87
X-Drift (nm/s),-328.74
Y-Drift (nm/s),160.60
Calibration (nm/pixel),166

Size data - Model Fit,
Mean (nm),0.00
Standard Deviation (nm),0.00
Diffusion Coefficient Data,
Mode (E4 nm^2/s),279.00
Mean (E4 nm^2/s),414.92
Standard Deviation (E4 nm^2/s),211.11

User Line 1,354
User Line 2,0
Average # centres/frame,103.87
Average # particles/frame,85.36
Equivalent particle concentration (E8 particles/ml),12.79
Selected average # particles/frame,0.00
Selected equivalent particle concentration (E8 particles/ml),0.00

[Settings],
Background Extract,On
Brightness,0
Gain,1.00
Blur Size,Auto,
Detection Threshold Type,Multi,
Detection Threshold,22
Min Track Length,Auto
Min Expected Size (nm),Auto

[Measurement Conditions]
Camera Type,CCD
Camera Shutter (ms),10.00
Camera Gain,339
Frame rate (fps),30.00
Temperature (°C),24.20
Viscosity (cP),0.905

[Warnings]
Low Completed Tracks,No
High Noise,0 frames
Auto max jump,Successful
Drift off,No
Settings Changed Whilst Processing,No
Vibration detected,Vibration detected <~10% error
Additional Errors,None

[Graph Data]
Diffusion Coefficient (E4 nm²/s), Concentration (E6 particles / ml),,
0,0.0000,,
1,0.0000,,
2,0.0000,,
3,0.0000,,
4,0.0000,,
5,0.0000,,
6,0.0000,,
7,0.0000,,
8,0.0000,,
9,0.0000,,
10,0.0000,,
11,0.0000,,
12,0.0000,,
13,0.0000,,
14,0.0000,,
15,0.0000,,
16,0.0000,,
17,0.0000,,
18,0.0000,,
19,0.0000,,
20,0.0000,,
21,0.0000,,
22,0.0000,,
23,0.0000,,
24,0.0000,,
25,0.0000,,
26,0.0000,,
27,0.0000,,
28,0.0000,,
29,0.0000,,
30,0.0000,,
31,0.0000,,
32,0.0000,,
33,0.0000,,
34,0.0000,,
35,0.0000,,
36,0.0000,,
37,0.0000,,
38,0.0000,,
39,0.0000,,
40,0.0000,,
41,0.0000,,
42,0.0000,,
43,0.0000,,
44,0.0000,,
45,0.0000,,
46,0.0000,,
47,0.0000,,
48,0.0000,,
49,0.0000,,
50,0.0000,,
51,0.0000,,
52,0.0000,,
53,0.0000,,
54,0.0000,,
55,0.0000,,
56,0.0000,,
57,0.0000,,
58,0.0000,,
59,0.0000,,
60,0.0000,,
61,0.0000,,
62,0.0000,,
63,0.0000,,
64,0.0000,,
65,0.0000,,
66,0.0000,,
67,0.0000,,
68,0.0000,,
69,0.0000,,
70,0.0000,,
71,0.0000,,
72,0.0000,,
73,0.0000,,
74,0.0000,,
75,0.0000,,
76,0.0000,,
77,0.0000,,
78,0.0000,,
79,0.0001,,
80,0.0001,,
81,0.0003,,
82,0.0004,,
83,0.0007,,
84,0.0010,,
85,0.0015,,
86,0.0023,,
87,0.0033,,
88,0.0047,,
89,0.0067,,
90,0.0092,,
91,0.0124,,
92,0.0166,,
93,0.0217,,
94,0.0279,,
95,0.0352,,
96,0.0438,,
97,0.0535,,
98,0.0644,,
99,0.0764,,
100,0.0891,,
101,0.1025,,
102,0.1162,,
103,0.1300,,
104,0.1435,,
105,0.1564,,
106,0.1685,,
107,0.1794,,
108,0.1892,,
109,0.1976,,
110,0.2047,,
111,0.2105,,
112,0.2153,,
113,0.2190,,
114,0.2221,,
115,0.2247,,
116,0.2271,,
117,0.2296,,
118,0.2323,,
119,0.2355,,
120,0.2393,,
121,0.2438,,
122,0.2491,,
123,0.2554,,
124,0.2626,,
125,0.2708,,
126,0.2802,,
127,0.2909,,
128,0.3028,,
129,0.3163,,
130,0.3316,,
131,0.3486,,
132,0.3678,,
133,0.3891,,
134,0.4129,,
135,0.4391,,
136,0.4677,,
137,0.4987,,
138,0.5321,,
139,0.5676,,
140,0.6051,,
141,0.6441,,
142,0.6845,,
143,0.7257,,
144,0.7673,,
145,0.8090,,
146,0.8504,,
147,0.8910,,
148,0.9306,,
149,0.9688,,
150,1.0054,,
151,1.0403,,
152,1.0733,,
153,1.1044,,
154,1.1337,,
155,1.1612,,
156,1.1871,,
157,1.2115,,
158,1.2348,,
159,1.2571,,
160,1.2788,,
161,1.3001,,
162,1.3214,,
163,1.3428,,
164,1.3646,,
165,1.3872,,
166,1.4106,,
167,1.4351,,
168,1.4607,,
169,1.4876,,
170,1.5159,,
171,1.5455,,
172,1.5765,,
173,1.6090,,
174,1.6427,,
175,1.6777,,
176,1.7140,,
177,1.7514,,
178,1.7897,,
179,1.8290,,
180,1.8690,,
181,1.9097,,
182,1.9508,,
183,1.9923,,
184,2.0341,,
185,2.0759,,
186,2.1176,,
187,2.1591,,
188,2.2002,,
189,2.2408,,
190,2.2807,,
191,2.3197,,
192,2.3577,,
193,2.3945,,
194,2.4301,,
195,2.4643,,
196,2.4970,,
197,2.5281,,
198,2.5575,,
199,2.5851,,
200,2.6110,,
201,2.6351,,
202,2.6574,,
203,2.6779,,
204,2.6967,,
205,2.7139,,
206,2.7296,,
207,2.7440,,
208,2.7570,,
209,2.7691,,
210,2.7802,,
211,2.7906,,
212,2.8005,,
213,2.8100,,
214,2.8195,,
215,2.8290,,
216,2.8388,,
217,2.8490,,
218,2.8598,,
219,2.8714,,
220,2.8838,,
221,2.8972,,
222,2.9116,,
223,2.9271,,
224,2.9438,,
225,2.9616,,
226,2.9804,,
227,3.0004,,
228,3.0215,,
229,3.0436,,
230,3.0665,,
231,3.0902,,
232,3.1147,,
233,3.1397,,
234,3.1652,,
235,3.1910,,
236,3.2171,,
237,3.2432,,
238,3.2693,,
239,3.2953,,
240,3.3209,,
241,3.3462,,
242,3.3711,,
243,3.3955,,
244,3.4192,,
245,3.4422,,
246,3.4645,,
247,3.4861,,
248,3.5068,,
249,3.5266,,
250,3.5456,,
251,3.5637,,
252,3.5810,,
253,3.5975,,
254,3.6131,,
255,3.6279,,
256,3.6419,,
257,3.6551,,
258,3.6676,,
259,3.6793,,
260,3.6904,,
261,3.7009,,
262,3.7106,,
263,3.7198,,
264,3.7284,,
265,3.7364,,
266,3.7438,,
267,3.7507,,
268,3.7571,,
269,3.7629,,
270,3.7682,,
271,3.7730,,
272,3.7773,,
273,3.7810,,
274,3.7842,,
275,3.7869,,
276,3.7890,,
277,3.7906,,
278,3.7917,,
279,3.7921,,
280,3.7921,,
281,3.7915,,
282,3.7903,,
283,3.7887,,
284,3.7864,,
285,3.7838,,
286,3.7805,,
287,3.7768,,
288,3.7727,,
289,3.7681,,
290,3.7631,,
291,3.7576,,
292,3.7519,,
293,3.7457,,
294,3.7393,,
295,3.7326,,
296,3.7256,,
297,3.7184,,
298,3.7110,,
299,3.7034,,
300,3.6957,,
301,3.6878,,
302,3.6798,,
303,3.6717,,
304,3.6635,,
305,3.6552,,
306,3.6468,,
307,3.6384,,
308,3.6298,,
309,3.6212,,
310,3.6125,,
311,3.6037,,
312,3.5947,,
313,3.5856,,
314,3.5763,,
315,3.5668,,
316,3.5572,,
317,3.5473,,
318,3.5371,,
319,3.5266,,
320,3.5159,,
321,3.5048,,
322,3.4934,,
323,3.4816,,
324,3.4694,,
325,3.4568,,
326,3.4438,,
327,3.4304,,
328,3.4166,,
329,3.4024,,
330,3.3878,,
331,3.3727,,
332,3.3573,,
333,3.3415,,
334,3.3253,,
335,3.3088,,
336,3.2920,,
337,3.2750,,
338,3.2577,,
339,3.2402,,
340,3.2226,,
341,3.2048,,
342,3.1869,,
343,3.1689,,
344,3.1510,,
345,3.1331,,
346,3.1152,,
347,3.0975,,
348,3.0798,,
349,3.0624,,
350,3.0452,,
351,3.0282,,
352,3.0114,,
353,2.9950,,
354,2.9788,,
355,2.9630,,
356,2.9476,,
357,2.9324,,
358,2.9176,,
359,2.9032,,
360,2.8892,,
361,2.8755,,
362,2.8621,,
363,2.8491,,
364,2.8364,,
365,2.8241,,
366,2.8121,,
367,2.8003,,
368,2.7888,,
369,2.7775,,
370,2.7665,,
371,2.7557,,
372,2.7450,,
373,2.7345,,
374,2.7242,,
375,2.7139,,
376,2.7037,,
377,2.6936,,
378,2.6836,,
379,2.6735,,
380,2.6635,,
381,2.6534,,
382,2.6433,,
383,2.6332,,
384,2.6230,,
385,2.6127,,
386,2.6023,,
387,2.5919,,
388,2.5814,,
389,2.5707,,
390,2.5600,,
391,2.5492,,
392,2.5382,,
393,2.5272,,
394,2.5161,,
395,2.5049,,
396,2.4936,,
397,2.4822,,
398,2.4708,,
399,2.4594,,
400,2.4479,,
401,2.4363,,
402,2.4248,,
403,2.4132,,
404,2.4016,,
405,2.3901,,
406,2.3785,,
407,2.3670,,
408,2.3556,,
409,2.3442,,
410,2.3329,,
411,2.3216,,
412,2.3105,,
413,2.2994,,
414,2.2884,,
415,2.2776,,
416,2.2668,,
417,2.2563,,
418,2.2458,,
419,2.2354,,
420,2.2252,,
421,2.2151,,
422,2.2052,,
423,2.1954,,
424,2.1857,,
425,2.1761,,
426,2.1667,,
427,2.1574,,
428,2.1483,,
429,2.1392,,
430,2.1303,,
431,2.1215,,
432,2.1128,,
433,2.1041,,
434,2.0956,,
435,2.0872,,
436,2.0788,,
437,2.0705,,
438,2.0623,,
439,2.0541,,
440,2.0460,,
441,2.0380,,
442,2.0300,,
443,2.0220,,
444,2.0140,,
445,2.0061,,
446,1.9982,,
447,1.9903,,
448,1.9824,,
449,1.9746,,
450,1.9667,,
451,1.9588,,
452,1.9510,,
453,1.9431,,
454,1.9353,,
455,1.9274,,
456,1.9195,,
457,1.9117,,
458,1.9038,,
459,1.8959,,
460,1.8880,,
461,1.8801,,
462,1.8722,,
463,1.8644,,
464,1.8565,,
465,1.8486,,
466,1.8408,,
467,1.8329,,
468,1.8251,,
469,1.8173,,
470,1.8095,,
471,1.8018,,
472,1.7941,,
473,1.7864,,
474,1.7787,,
475,1.7711,,
476,1.7635,,
477,1.7560,,
478,1.7485,,
479,1.7410,,
480,1.7337,,
481,1.7263,,
482,1.7190,,
483,1.7118,,
484,1.7047,,
485,1.6976,,
486,1.6905,,
487,1.6835,,
488,1.6765,,
489,1.6697,,
490,1.6629,,
491,1.6561,,
492,1.6494,,
493,1.6427,,
494,1.6361,,
495,1.6295,,
496,1.6230,,
497,1.6165,,
498,1.6101,,
499,1.6037,,
500,1.5974,,
501,1.5911,,
502,1.5848,,
503,1.5785,,
504,1.5723,,
505,1.5660,,
506,1.5598,,
507,1.5537,,
508,1.5475,,
509,1.5413,,
510,1.5352,,
511,1.5290,,
512,1.5228,,
513,1.5167,,
514,1.5105,,
515,1.5043,,
516,1.4981,,
517,1.4919,,
518,1.4857,,
519,1.4795,,
520,1.4732,,
521,1.4669,,
522,1.4606,,
523,1.4543,,
524,1.4480,,
525,1.4416,,
526,1.4352,,
527,1.4288,,
528,1.4223,,
529,1.4159,,
530,1.4094,,
531,1.4029,,
532,1.3963,,
533,1.3898,,
534,1.3832,,
535,1.3766,,
536,1.3700,,
537,1.3633,,
538,1.3567,,
539,1.3500,,
540,1.3433,,
541,1.3366,,
542,1.3299,,
543,1.3232,,
544,1.3165,,
545,1.3098,,
546,1.3031,,
547,1.2963,,
548,1.2896,,
549,1.2829,,
550,1.2761,,
551,1.2694,,
552,1.2627,,
553,1.2560,,
554,1.2494,,
555,1.2427,,
556,1.2360,,
557,1.2294,,
558,1.2228,,
559,1.2162,,
560,1.2096,,
561,1.2031,,
562,1.1965,,
563,1.1900,,
564,1.1835,,
565,1.1771,,
566,1.1707,,
567,1.1643,,
568,1.1579,,
569,1.1515,,
570,1.1453,,
571,1.1390,,
572,1.1327,,
573,1.1265,,
574,1.1203,,
575,1.1142,,
576,1.1081,,
577,1.1020,,
578,1.0960,,
579,1.0900,,
580,1.0840,,
581,1.0781,,
582,1.0722,,
583,1.0664,,
584,1.0606,,
585,1.0548,,
586,1.0490,,
587,1.0433,,
588,1.0376,,
589,1.0320,,
590,1.0264,,
591,1.0209,,
592,1.0154,,
593,1.0099,,
594,1.0045,,
595,0.9991,,
596,0.9937,,
597,0.9884,,
598,0.9831,,
599,0.9779,,
600,0.9727,,
601,0.9675,,
602,0.9624,,
603,0.9573,,
604,0.9523,,
605,0.9473,,
606,0.9423,,
607,0.9374,,
608,0.9325,,
609,0.9277,,
610,0.9229,,
611,0.9181,,
612,0.9134,,
613,0.9087,,
614,0.9041,,
615,0.8994,,
616,0.8949,,
617,0.8904,,
618,0.8859,,
619,0.8814,,
620,0.8770,,
621,0.8727,,
622,0.8683,,
623,0.8641,,
624,0.8598,,
625,0.8556,,
626,0.8514,,
627,0.8473,,
628,0.8432,,
629,0.8391,,
630,0.8351,,
631,0.8311,,
632,0.8272,,
633,0.8232,,
634,0.8194,,
635,0.8155,,
636,0.8117,,
637,0.8079,,
638,0.8041,,
639,0.8004,,
640,0.7967,,
641,0.7931,,
642,0.7894,,
643,0.7858,,
644,0.7822,,
645,0.7787,,
646,0.7752,,
647,0.7717,,
648,0.7682,,
649,0.7647,,
650,0.7613,,
651,0.7579,,
652,0.7545,,
653,0.7511,,
654,0.7478,,
655,0.7445,,
656,0.7411,,
657,0.7378,,
658,0.7346,,
659,0.7313,,
660,0.7280,,
661,0.7248,,
662,0.7216,,
663,0.7184,,
664,0.7152,,
665,0.7120,,
666,0.7088,,
667,0.7056,,
668,0.7025,,
669,0.6993,,
670,0.6961,,
671,0.6930,,
672,0.6898,,
673,0.6867,,
674,0.6836,,
675,0.6805,,
676,0.6773,,
677,0.6742,,
678,0.6711,,
679,0.6680,,
680,0.6649,,
681,0.6617,,
682,0.6586,,
683,0.6555,,
684,0.6524,,
685,0.6493,,
686,0.6462,,
687,0.6431,,
688,0.6399,,
689,0.6368,,
690,0.6337,,
691,0.6306,,
692,0.6275,,
693,0.6244,,
694,0.6212,,
695,0.6181,,
696,0.6150,,
697,0.6119,,
698,0.6088,,
699,0.6056,,
700,0.6025,,
701,0.5994,,
702,0.5963,,
703,0.5932,,
704,0.5900,,
705,0.5869,,
706,0.5838,,
707,0.5807,,
708,0.5776,,
709,0.5745,,
710,0.5714,,
711,0.5682,,
712,0.5651,,
713,0.5620,,
714,0.5590,,
715,0.5559,,
716,0.5528,,
717,0.5497,,
718,0.5466,,
719,0.5435,,
720,0.5405,,
721,0.5374,,
722,0.5344,,
723,0.5313,,
724,0.5283,,
725,0.5252,,
726,0.5222,,
727,0.5192,,
728,0.5162,,
729,0.5132,,
730,0.5102,,
731,0.5072,,
732,0.5043,,
733,0.5013,,
734,0.4984,,
735,0.4954,,
736,0.4925,,
737,0.4896,,
738,0.4867,,
739,0.4838,,
740,0.4810,,
741,0.4781,,
742,0.4753,,
743,0.4724,,
744,0.4696,,
745,0.4668,,
746,0.4641,,
747,0.4613,,
748,0.4585,,
749,0.4558,,
750,0.4531,,
751,0.4504,,
752,0.4477,,
753,0.4450,,
754,0.4424,,
755,0.4398,,
756,0.4371,,
757,0.4345,,
758,0.4320,,
759,0.4294,,
760,0.4269,,
761,0.4244,,
762,0.4218,,
763,0.4194,,
764,0.4169,,
765,0.4145,,
766,0.4120,,
767,0.4096,,
768,0.4073,,
769,0.4049,,
770,0.4026,,
771,0.4003,,
772,0.3980,,
773,0.3957,,
774,0.3934,,
775,0.3912,,
776,0.3890,,
777,0.3868,,
778,0.3846,,
779,0.3825,,
780,0.3804,,
781,0.3783,,
782,0.3762,,
783,0.3741,,
784,0.3721,,
785,0.3701,,
786,0.3681,,
787,0.3661,,
788,0.3642,,
789,0.3623,,
790,0.3604,,
791,0.3585,,
792,0.3567,,
793,0.3548,,
794,0.3530,,
795,0.3512,,
796,0.3495,,
797,0.3477,,
798,0.3460,,
799,0.3443,,
800,0.3426,,
801,0.3410,,
802,0.3393,,
803,0.3377,,
804,0.3361,,
805,0.3346,,
806,0.3330,,
807,0.3315,,
808,0.3300,,
809,0.3285,,
810,0.3270,,
811,0.3256,,
812,0.3241,,
813,0.3227,,
814,0.3213,,
815,0.3199,,
816,0.3186,,
817,0.3172,,
818,0.3159,,
819,0.3146,,
820,0.3133,,
821,0.3121,,
822,0.3108,,
823,0.3096,,
824,0.3083,,
825,0.3071,,
826,0.3059,,
827,0.3048,,
828,0.3036,,
829,0.3024,,
830,0.3013,,
831,0.3002,,
832,0.2991,,
833,0.2980,,
834,0.2969,,
835,0.2958,,
836,0.2947,,
837,0.2937,,
838,0.2926,,
839,0.2916,,
840,0.2906,,
841,0.2896,,
842,0.2885,,
843,0.2876,,
844,0.2866,,
845,0.2856,,
846,0.2846,,
847,0.2836,,
848,0.2827,,
849,0.2817,,
850,0.2808,,
851,0.2798,,
852,0.2789,,
853,0.2779,,
854,0.2770,,
855,0.2761,,
856,0.2752,,
857,0.2743,,
858,0.2734,,
859,0.2724,,
860,0.2715,,
861,0.2706,,
862,0.2697,,
863,0.2688,,
864,0.2680,,
865,0.2671,,
866,0.2662,,
867,0.2653,,
868,0.2644,,
869,0.2635,,
870,0.2626,,
871,0.2617,,
872,0.2608,,
873,0.2599,,
874,0.2591,,
875,0.2582,,
876,0.2573,,
877,0.2564,,
878,0.2555,,
879,0.2546,,
880,0.2537,,
881,0.2528,,
882,0.2519,,
883,0.2510,,
884,0.2501,,
885,0.2492,,
886,0.2483,,
887,0.2474,,
888,0.2465,,
889,0.2456,,
890,0.2447,,
891,0.2438,,
892,0.2429,,
893,0.2420,,
894,0.2411,,
895,0.2401,,
896,0.2392,,
897,0.2383,,
898,0.2374,,
899,0.2365,,
900,0.2355,,
901,0.2346,,
902,0.2337,,
903,0.2327,,
904,0.2318,,
905,0.2308,,
906,0.2299,,
907,0.2290,,
908,0.2280,,
909,0.2271,,
910,0.2261,,
911,0.2252,,
912,0.2242,,
913,0.2232,,
914,0.2223,,
915,0.2213,,
916,0.2204,,
917,0.2194,,
918,0.2184,,
919,0.2175,,
920,0.2165,,
921,0.2155,,
922,0.2146,,
923,0.2136,,
924,0.2126,,
925,0.2116,,
926,0.2107,,
927,0.2097,,
928,0.2087,,
929,0.2078,,
930,0.2068,,
931,0.2058,,
932,0.2048,,
933,0.2039,,
934,0.2029,,
935,0.2019,,
936,0.2009,,
937,0.1999,,
938,0.1990,,
939,0.1980,,
940,0.1970,,
941,0.1961,,
942,0.1951,,
943,0.1941,,
944,0.1931,,
945,0.1922,,
946,0.1912,,
947,0.1902,,
948,0.1893,,
949,0.1883,,
950,0.1874,,
951,0.1864,,
952,0.1854,,
953,0.1845,,
954,0.1835,,
955,0.1826,,
956,0.1816,,
957,0.1807,,
958,0.1797,,
959,0.1788,,
960,0.1779,,
961,0.1769,,
962,0.1760,,
963,0.1751,,
964,0.1741,,
965,0.1732,,
966,0.1723,,
967,0.1714,,
968,0.1705,,
969,0.1696,,
970,0.1687,,
971,0.1678,,
972,0.1669,,
973,0.1660,,
974,0.1651,,
975,0.1642,,
976,0.1633,,
977,0.1625,,
978,0.1616,,
979,0.1607,,
980,0.1599,,
981,0.1590,,
982,0.1582,,
983,0.1573,,
984,0.1565,,
985,0.1556,,
986,0.1548,,
987,0.1540,,
988,0.1532,,
989,0.1523,,
990,0.1515,,
991,0.1507,,
992,0.1499,,
993,0.1491,,
994,0.1483,,
995,0.1476,,
996,0.1468,,
997,0.1460,,
998,0.1453,,
999,0.1445,,
1000,0.1437,,
1001,0.1430,,
1002,0.1423,,
1003,0.1415,,
1004,0.1408,,
1005,0.1401,,
1006,0.1394,,
1007,0.1387,,
1008,0.1380,,
1009,0.1373,,
1010,0.1366,,
1011,0.1359,,
1012,0.1352,,
1013,0.1345,,
1014,0.1339,,
1015,0.1332,,
1016,0.1325,,
1017,0.1319,,
1018,0.1313,,
1019,0.1306,,
1020,0.1300,,
1021,0.1294,,
1022,0.1287,,
1023,0.1281,,
1024,0.1275,,
1025,0.1269,,
1026,0.1263,,
1027,0.1257,,
1028,0.1252,,
1029,0.1246,,
1030,0.1240,,
1031,0.1235,,
1032,0.1229,,
1033,0.1223,,
1034,0.1218,,
1035,0.1213,,
1036,0.1207,,
1037,0.1202,,
1038,0.1197,,
1039,0.1192,,
1040,0.1186,,
1041,0.1181,,
1042,0.1176,,
1043,0.1171,,
1044,0.1166,,
1045,0.1161,,
1046,0.1157,,
1047,0.1152,,
1048,0.1147,,
1049,0.1142,,
1050,0.1138,,
1051,0.1133,,
1052,0.1129,,
1053,0.1124,,
1054,0.1120,,
1055,0.1115,,
1056,0.1111,,
1057,0.1107,,
1058,0.1102,,
1059,0.1098,,
1060,0.1094,,
1061,0.1090,,
1062,0.1086,,
1063,0.1081,,
1064,0.1077,,
1065,0.1073,,
1066,0.1069,,
1067,0.1065,,
1068,0.1062,,
1069,0.1058,,
1070,0.1054,,
1071,0.1050,,
1072,0.1046,,
1073,0.1042,,
1074,0.1039,,
1075,0.1035,,
1076,0.1031,,
1077,0.1028,,
1078,0.1024,,
1079,0.1020,,
1080,0.1017,,
1081,0.1013,,
1082,0.1010,,
1083,0.1006,,
1084,0.1003,,
1085,0.0999,,
1086,0.0996,,
1087,0.0992,,
1088,0.0989,,
1089,0.0985,,
1090,0.0982,,
1091,0.0979,,
1092,0.0975,,
1093,0.0972,,
1094,0.0969,,
1095,0.0965,,
1096,0.0962,,
1097,0.0959,,
1098,0.0955,,
1099,0.0952,,
1100,0.0949,,
1101,0.0945,,
1102,0.0942,,
1103,0.0939,,
1104,0.0936,,
1105,0.0932,,
1106,0.0929,,
1107,0.0926,,
1108,0.0923,,
1109,0.0920,,
1110,0.0916,,
1111,0.0913,,
1112,0.0910,,
1113,0.0907,,
1114,0.0904,,
1115,0.0900,,
1116,0.0897,,
1117,0.0894,,
1118,0.0891,,
1119,0.0888,,
1120,0.0884,,
1121,0.0881,,
1122,0.0878,,
1123,0.0875,,
1124,0.0872,,
1125,0.0868,,
1126,0.0865,,
1127,0.0862,,
1128,0.0859,,
1129,0.0856,,
1130,0.0853,,
1131,0.0849,,
1132,0.0846,,
1133,0.0843,,
1134,0.0840,,
1135,0.0837,,
1136,0.0833,,
1137,0.0830,,
1138,0.0827,,
1139,0.0824,,
1140,0.0820,,
1141,0.0817,,
1142,0.0814,,
1143,0.0811,,
1144,0.0808,,
1145,0.0804,,
1146,0.0801,,
1147,0.0798,,
1148,0.0795,,
1149,0.0791,,
1150,0.0788,,
1151,0.0785,,
1152,0.0782,,
1153,0.0778,,
1154,0.0775,,
1155,0.0772,,
1156,0.0769,,
1157,0.0765,,
1158,0.0762,,
1159,0.0759,,
1160,0.0755,,
1161,0.0752,,
1162,0.0749,,
1163,0.0746,,
1164,0.0742,,
1165,0.0739,,
1166,0.0736,,
1167,0.0733,,
1168,0.0729,,
1169,0.0726,,
1170,0.0723,,
1171,0.0719,,
1172,0.0716,,
1173,0.0713,,
1174,0.0709,,
1175,0.0706,,
1176,0.0703,,
1177,0.0700,,
1178,0.0696,,
1179,0.0693,,
1180,0.0690,,
1181,0.0687,,
1182,0.0683,,
1183,0.0680,,
1184,0.0677,,
1185,0.0673,,
1186,0.0670,,
1187,0.0667,,
1188,0.0664,,
1189,0.0660,,
1190,0.0657,,
1191,0.0654,,
1192,0.0651,,
1193,0.0647,,
1194,0.0644,,
1195,0.0641,,
1196,0.0638,,
1197,0.0634,,
1198,0.0631,,
1199,0.0628,,
1200,0.0625,,
1201,0.0621,,
1202,0.0618,,
1203,0.0615,,
1204,0.0612,,
1205,0.0609,,
1206,0.0605,,
1207,0.0602,,
1208,0.0599,,
1209,0.0596,,
1210,0.0593,,
1211,0.0590,,
1212,0.0587,,
1213,0.0583,,
1214,0.0580,,
1215,0.0577,,
1216,0.0574,,
1217,0.0571,,
1218,0.0568,,
1219,0.0565,,
1220,0.0562,,
1221,0.0559,,
1222,0.0556,,
1223,0.0553,,
1224,0.0550,,
1225,0.0547,,
1226,0.0544,,
1227,0.0541,,
1228,0.0538,,
1229,0.0535,,
1230,0.0532,,
1231,0.0529,,
1232,0.0526,,
1233,0.0523,,
1234,0.0520,,
1235,0.0517,,
1236,0.0514,,
1237,0.0511,,
1238,0.0508,,
1239,0.0506,,
1240,0.0503,,
1241,0.0500,,
1242,0.0497,,
1243,0.0494,,
1244,0.0492,,
1245,0.0489,,
1246,0.0486,,
1247,0.0483,,
1248,0.0481,,
1249,0.0478,,
1250,0.0475,,
1251,0.0472,,
1252,0.0470,,
1253,0.0467,,
1254,0.0464,,
1255,0.0462,,
1256,0.0459,,
1257,0.0457,,
1258,0.0454,,
1259,0.0451,,
1260,0.0449,,
1261,0.0446,,
1262,0.0444,,
1263,0.0441,,
1264,0.0439,,
1265,0.0436,,
1266,0.0434,,
1267,0.0431,,
1268,0.0429,,
1269,0.0426,,
1270,0.0424,,
1271,0.0422,,
1272,0.0419,,
1273,0.0417,,
1274,0.0414,,
1275,0.0412,,
1276,0.0410,,
1277,0.0408,,
1278,0.0405,,
1279,0.0403,,
1280,0.0401,,
1281,0.0398,,
1282,0.0396,,
1283,0.0394,,
1284,0.0392,,
1285,0.0389,,
1286,0.0387,,
1287,0.0385,,
1288,0.0383,,
1289,0.0381,,
1290,0.0379,,
1291,0.0377,,
1292,0.0374,,
1293,0.0372,,
1294,0.0370,,
1295,0.0368,,
1296,0.0366,,
1297,0.0364,,
1298,0.0362,,
1299,0.0360,,
1300,0.0358,,
1301,0.0356,,
1302,0.0354,,
1303,0.0352,,
1304,0.0350,,
1305,0.0348,,
1306,0.0346,,
1307,0.0344,,
1308,0.0342,,
1309,0.0341,,
1310,0.0339,,
1311,0.0337,,
1312,0.0335,,
1313,0.0333,,
1314,0.0331,,
1315,0.0329,,
1316,0.0328,,
1317,0.0326,,
1318,0.0324,,
1319,0.0322,,
1320,0.0320,,
1321,0.0319,,
1322,0.0317,,
1323,0.0315,,
1324,0.0313,,
1325,0.0312,,
1326,0.0310,,
1327,0.0308,,
1328,0.0307,,
1329,0.0305,,
1330,0.0303,,
1331,0.0302,,
1332,0.0300,,
1333,0.0298,,
1334,0.0297,,
1335,0.0295,,
1336,0.0293,,
1337,0.0292,,
1338,0.0290,,
1339,0.0289,,
1340,0.0287,,
1341,0.0285,,
1342,0.0284,,
1343,0.0282,,
1344,0.0281,,
1345,0.0279,,
1346,0.0278,,
1347,0.0276,,
1348,0.0274,,
1349,0.0273,,
1350,0.0271,,
1351,0.0270,,
1352,0.0268,,
1353,0.0267,,
1354,0.0265,,
1355,0.0264,,
1356,0.0262,,
1357,0.0261,,
1358,0.0260,,
1359,0.0258,,
1360,0.0257,,
1361,0.0255,,
1362,0.0254,,
1363,0.0252,,
1364,0.0251,,
1365,0.0249,,
1366,0.0248,,
1367,0.0247,,
1368,0.0245,,
1369,0.0244,,
1370,0.0242,,
1371,0.0241,,
1372,0.0240,,
1373,0.0238,,
1374,0.0237,,
1375,0.0235,,
1376,0.0234,,
1377,0.0233,,
1378,0.0231,,
1379,0.0230,,
1380,0.0229,,
1381,0.0227,,
1382,0.0226,,
1383,0.0225,,
1384,0.0223,,
1385,0.0222,,
1386,0.0221,,
1387,0.0219,,
1388,0.0218,,
1389,0.0217,,
1390,0.0215,,
1391,0.0214,,
1392,0.0213,,
1393,0.0211,,
1394,0.0210,,
1395,0.0209,,
1396,0.0208,,
1397,0.0206,,
1398,0.0205,,
1399,0.0204,,
1400,0.0202,,
1401,0.0201,,
1402,0.0200,,
1403,0.0199,,
1404,0.0197,,
1405,0.0196,,
1406,0.0195,,
1407,0.0194,,
1408,0.0192,,
1409,0.0191,,
1410,0.0190,,
1411,0.0189,,
1412,0.0188,,
1413,0.0186,,
1414,0.0185,,
1415,0.0184,,
1416,0.0183,,
1417,0.0182,,
1418,0.0180,,
1419,0.0179,,
1420,0.0178,,
1421,0.0177,,
1422,0.0176,,
1423,0.0174,,
1424,0.0173,,
1425,0.0172,,
1426,0.0171,,
1427,0.0170,,
1428,0.0169,,
1429,0.0168,,
1430,0.0166,,
1431,0.0165,,
1432,0.0164,,
1433,0.0163,,
1434,0.0162,,
1435,0.0161,,
1436,0.0160,,
1437,0.0159,,
1438,0.0158,,
1439,0.0156,,
1440,0.0155,,
1441,0.0154,,
1442,0.0153,,
1443,0.0152,,
1444,0.0151,,
1445,0.0150,,
1446,0.0149,,
1447,0.0148,,
1448,0.0147,,
1449,0.0146,,
1450,0.0145,,
1451,0.0144,,
1452,0.0143,,
1453,0.0142,,
1454,0.0141,,
1455,0.0140,,
1456,0.0139,,
1457,0.0138,,
1458,0.0137,,
1459,0.0136,,
1460,0.0135,,
1461,0.0134,,
1462,0.0133,,
1463,0.0132,,
1464,0.0131,,
1465,0.0130,,
1466,0.0129,,
1467,0.0128,,
1468,0.0128,,
1469,0.0127,,
1470,0.0126,,
1471,0.0125,,
1472,0.0124,,
1473,0.0123,,
1474,0.0122,,
1475,0.0121,,
1476,0.0120,,
1477,0.0120,,
1478,0.0119,,
1479,0.0118,,
1480,0.0117,,
1481,0.0116,,
1482,0.0115,,
1483,0.0115,,
1484,0.0114,,
1485,0.0113,,
1486,0.0112,,
1487,0.0111,,
1488,0.0111,,
1489,0.0110,,
1490,0.0109,,
1491,0.0108,,
1492,0.0108,,
1493,0.0107,,
1494,0.0106,,
1495,0.0105,,
1496,0.0105,,
1497,0.0104,,
1498,0.0103,,
1499,0.0103,,
1500,0.0102,,
1501,0.0101,,
1502,0.0101,,
1503,0.0100,,
1504,0.0099,,
1505,0.0099,,
1506,0.0098,,
1507,0.0097,,
1508,0.0097,,
1509,0.0096,,
1510,0.0095,,
1511,0.0095,,
1512,0.0094,,
1513,0.0093,,
1514,0.0093,,
1515,0.0092,,
1516,0.0092,,
1517,0.0091,,
1518,0.0090,,
1519,0.0090,,
1520,0.0089,,
1521,0.0089,,
1522,0.0088,,
1523,0.0088,,
1524,0.0087,,
1525,0.0087,,
1526,0.0086,,
1527,0.0086,,
1528,0.0085,,
1529,0.0084,,
1530,0.0084,,
1531,0.0083,,
1532,0.0083,,
1533,0.0082,,
1534,0.0082,,
1535,0.0082,,
1536,0.0081,,
1537,0.0081,,
1538,0.0080,,
1539,0.0080,,
1540,0.0079,,
1541,0.0079,,
1542,0.0078,,
1543,0.0078,,
1544,0.0077,,
1545,0.0077,,
1546,0.0077,,
1547,0.0076,,
1548,0.0076,,
1549,0.0075,,
1550,0.0075,,
1551,0.0074,,
1552,0.0074,,
1553,0.0074,,
1554,0.0073,,
1555,0.0073,,
1556,0.0072,,
1557,0.0072,,
1558,0.0072,,
1559,0.0071,,
1560,0.0071,,
1561,0.0071,,
1562,0.0070,,
1563,0.0070,,
1564,0.0069,,
1565,0.0069,,
1566,0.0069,,
1567,0.0068,,
1568,0.0068,,
1569,0.0068,,
1570,0.0067,,
1571,0.0067,,
1572,0.0067,,
1573,0.0066,,
1574,0.0066,,
1575,0.0066,,
1576,0.0065,,
1577,0.0065,,
1578,0.0065,,
1579,0.0065,,
1580,0.0064,,
1581,0.0064,,
1582,0.0064,,
1583,0.0063,,
1584,0.0063,,
1585,0.0063,,
1586,0.0062,,
1587,0.0062,,
1588,0.0062,,
1589,0.0062,,
1590,0.0061,,
1591,0.0061,,
1592,0.0061,,
1593,0.0060,,
1594,0.0060,,
1595,0.0060,,
1596,0.0060,,
1597,0.0059,,
1598,0.0059,,
1599,0.0059,,
1600,0.0059,,
1601,0.0058,,
1602,0.0058,,
1603,0.0058,,
1604,0.0057,,
1605,0.0057,,
1606,0.0057,,
1607,0.0057,,
1608,0.0056,,
1609,0.0056,,
1610,0.0056,,
1611,0.0056,,
1612,0.0055,,
1613,0.0055,,
1614,0.0055,,
1615,0.0055,,
1616,0.0054,,
1617,0.0054,,
1618,0.0054,,
1619,0.0054,,
1620,0.0053,,
1621,0.0053,,
1622,0.0053,,
1623,0.0053,,
1624,0.0052,,
1625,0.0052,,
1626,0.0052,,
1627,0.0052,,
1628,0.0051,,
1629,0.0051,,
1630,0.0051,,
1631,0.0051,,
1632,0.0051,,
1633,0.0050,,
1634,0.0050,,
1635,0.0050,,
1636,0.0050,,
1637,0.0049,,
1638,0.0049,,
1639,0.0049,,
1640,0.0049,,
1641,0.0048,,
1642,0.0048,,
1643,0.0048,,
1644,0.0048,,
1645,0.0047,,
1646,0.0047,,
1647,0.0047,,
1648,0.0047,,
1649,0.0047,,
1650,0.0046,,
1651,0.0046,,
1652,0.0046,,
1653,0.0046,,
1654,0.0045,,
1655,0.0045,,
1656,0.0045,,
1657,0.0045,,
1658,0.0044,,
1659,0.0044,,
1660,0.0044,,
1661,0.0044,,
1662,0.0043,,
1663,0.0043,,
1664,0.0043,,
1665,0.0043,,
1666,0.0043,,
1667,0.0042,,
1668,0.0042,,
1669,0.0042,,
1670,0.0042,,
1671,0.0041,,
1672,0.0041,,
1673,0.0041,,
1674,0.0041,,
1675,0.0040,,
1676,0.0040,,
1677,0.0040,,
1678,0.0040,,
1679,0.0040,,
1680,0.0039,,
1681,0.0039,,
1682,0.0039,,
1683,0.0039,,
1684,0.0038,,
1685,0.0038,,
1686,0.0038,,
1687,0.0038,,
1688,0.0037,,
1689,0.0037,,
1690,0.0037,,
1691,0.0037,,
1692,0.0037,,
1693,0.0036,,
1694,0.0036,,
1695,0.0036,,
1696,0.0036,,
1697,0.0035,,
1698,0.0035,,
1699,0.0035,,
1700,0.0035,,
1701,0.0035,,
1702,0.0034,,
1703,0.0034,,
1704,0.0034,,
1705,0.0034,,
1706,0.0033,,
1707,0.0033,,
1708,0.0033,,
1709,0.0033,,
1710,0.0032,,
1711,0.0032,,
1712,0.0032,,
1713,0.0032,,
1714,0.0032,,
1715,0.0031,,
1716,0.0031,,
1717,0.0031,,
1718,0.0031,,
1719,0.0030,,
1720,0.0030,,
1721,0.0030,,
1722,0.0030,,
1723,0.0030,,
1724,0.0029,,
1725,0.0029,,
1726,0.0029,,
1727,0.0029,,
1728,0.0028,,
1729,0.0028,,
1730,0.0028,,
1731,0.0028,,
1732,0.0028,,
1733,0.0027,,
1734,0.0027,,
1735,0.0027,,
1736,0.0027,,
1737,0.0027,,
1738,0.0026,,
1739,0.0026,,
1740,0.0026,,
1741,0.0026,,
1742,0.0026,,
1743,0.0025,,
1744,0.0025,,
1745,0.0025,,
1746,0.0025,,
1747,0.0024,,
1748,0.0024,,
1749,0.0024,,
1750,0.0024,,
1751,0.0024,,
1752,0.0023,,
1753,0.0023,,
1754,0.0023,,
1755,0.0023,,
1756,0.0023,,
1757,0.0022,,
1758,0.0022,,
1759,0.0022,,
1760,0.0022,,
1761,0.0022,,
1762,0.0021,,
1763,0.0021,,
1764,0.0021,,
1765,0.0021,,
1766,0.0021,,
1767,0.0020,,
1768,0.0020,,
1769,0.0020,,
1770,0.0020,,
1771,0.0020,,
1772,0.0020,,
1773,0.0019,,
1774,0.0019,,
1775,0.0019,,
1776,0.0019,,
1777,0.0019,,
1778,0.0018,,
1779,0.0018,,
1780,0.0018,,
1781,0.0018,,
1782,0.0018,,
1783,0.0018,,
1784,0.0017,,
1785,0.0017,,
1786,0.0017,,
1787,0.0017,,
1788,0.0017,,
1789,0.0017,,
1790,0.0016,,
1791,0.0016,,
1792,0.0016,,
1793,0.0016,,
1794,0.0016,,
1795,0.0016,,
1796,0.0015,,
1797,0.0015,,
1798,0.0015,,
1799,0.0015,,
1800,0.0015,,
1801,0.0015,,
1802,0.0014,,
1803,0.0014,,
1804,0.0014,,
1805,0.0014,,
1806,0.0014,,
1807,0.0014,,
1808,0.0014,,
1809,0.0013,,
1810,0.0013,,
1811,0.0013,,
1812,0.0013,,
1813,0.0013,,
1814,0.0013,,
1815,0.0012,,
1816,0.0012,,
1817,0.0012,,
1818,0.0012,,
1819,0.0012,,
1820,0.0012,,
1821,0.0012,,
1822,0.0012,,
1823,0.0011,,
1824,0.0011,,
1825,0.0011,,
1826,0.0011,,
1827,0.0011,,
1828,0.0011,,
1829,0.0011,,
1830,0.0010,,
1831,0.0010,,
1832,0.0010,,
1833,0.0010,,
1834,0.0010,,
1835,0.0010,,
1836,0.0010,,
1837,0.0010,,
1838,0.0009,,
1839,0.0009,,
1840,0.0009,,
1841,0.0009,,
1842,0.0009,,
1843,0.0009,,
1844,0.0009,,
1845,0.0009,,
1846,0.0009,,
1847,0.0008,,
1848,0.0008,,
1849,0.0008,,
1850,0.0008,,
1851,0.0008,,
1852,0.0008,,
1853,0.0008,,
1854,0.0008,,
1855,0.0008,,
1856,0.0008,,
1857,0.0007,,
1858,0.0007,,
1859,0.0007,,
1860,0.0007,,
1861,0.0007,,
1862,0.0007,,
1863,0.0007,,
1864,0.0007,,
1865,0.0007,,
1866,0.0007,,
1867,0.0006,,
1868,0.0006,,
1869,0.0006,,
1870,0.0006,,
1871,0.0006,,
1872,0.0006,,
1873,0.0006,,
1874,0.0006,,
1875,0.0006,,
1876,0.0006,,
1877,0.0006,,
1878,0.0006,,
1879,0.0005,,
1880,0.0005,,
1881,0.0005,,
1882,0.0005,,
1883,0.0005,,
1884,0.0005,,
1885,0.0005,,
1886,0.0005,,
1887,0.0005,,
1888,0.0005,,
1889,0.0005,,
1890,0.0005,,
1891,0.0005,,
1892,0.0005,,
1893,0.0004,,
1894,0.0004,,
1895,0.0004,,
1896,0.0004,,
1897,0.0004,,
1898,0.0004,,
1899,0.0004,,
1900,0.0004,,
1901,0.0004,,
1902,0.0004,,
1903,0.0004,,
1904,0.0004,,
1905,0.0004,,
1906,0.0004,,
1907,0.0004,,
1908,0.0004,,
1909,0.0003,,
1910,0.0003,,
1911,0.0003,,
1912,0.0003,,
1913,0.0003,,
1914,0.0003,,
1915,0.0003,,
1916,0.0003,,
1917,0.0003,,
1918,0.0003,,
1919,0.0003,,
1920,0.0003,,
1921,0.0003,,
1922,0.0003,,
1923,0.0003,,
1924,0.0003,,
1925,0.0003,,
1926,0.0003,,
1927,0.0003,,
1928,0.0003,,
1929,0.0003,,
1930,0.0002,,
1931,0.0002,,
1932,0.0002,,
1933,0.0002,,
1934,0.0002,,
1935,0.0002,,
1936,0.0002,,
1937,0.0002,,
1938,0.0002,,
1939,0.0002,,
1940,0.0002,,
1941,0.0002,,
1942,0.0002,,
1943,0.0002,,
1944,0.0002,,
1945,0.0002,,
1946,0.0002,,
1947,0.0002,,
1948,0.0002,,
1949,0.0002,,
1950,0.0002,,
1951,0.0002,,
1952,0.0002,,
1953,0.0002,,
1954,0.0002,,
1955,0.0002,,
1956,0.0002,,
1957,0.0002,,
1958,0.0002,,
1959,0.0001,,
1960,0.0001,,
1961,0.0001,,
1962,0.0001,,
1963,0.0001,,
1964,0.0001,,
1965,0.0001,,
1966,0.0001,,
1967,0.0001,,
1968,0.0001,,
1969,0.0001,,
1970,0.0001,,
1971,0.0001,,
1972,0.0001,,
1973,0.0001,,
1974,0.0001,,
1975,0.0001,,
1976,0.0001,,
1977,0.0001,,
1978,0.0001,,
1979,0.0001,,
1980,0.0001,,
1981,0.0001,,
1982,0.0001,,
1983,0.0001,,
1984,0.0001,,
1985,0.0001,,
1986,0.0001,,
1987,0.0001,,
1988,0.0001,,
1989,0.0001,,
1990,0.0001,,
1991,0.0001,,
1992,0.0001,,
1993,0.0001,,
1994,0.0001,,
1995,0.0001,,
1996,0.0001,,
1997,0.0001,,
1998,0.0001,,
1999,0.0001,,

[Histogram Data]
Binwidth,4
Diffusion Coefficient (E4 nm²/s), Concentration (E6 particles / ml),,
2.0,0.0000,,
6.0,0.0000,,
10.0,0.0000,,
14.0,0.0000,,
18.0,0.0000,,
22.0,0.0000,,
26.0,0.0000,,
30.0,0.0000,,
34.0,0.0000,,
38.0,0.0000,,
42.0,0.0000,,
46.0,0.0000,,
50.0,0.0000,,
54.0,0.0000,,
58.0,0.0000,,
62.0,0.0000,,
66.0,0.0000,,
70.0,0.0000,,
74.0,0.0000,,
78.0,0.0000,,
82.0,0.0000,,
86.0,0.0000,,
90.0,0.0000,,
94.0,0.0000,,
98.0,0.0000,,
102.0,0.4757,,
106.0,0.4757,,
110.0,1.4272,,
114.0,0.5123,,
118.0,1.1344,,
122.0,0.4025,,
126.0,1.2442,,
130.0,1.4272,,
134.0,0.8783,,
138.0,0.4025,,
142.0,1.9395,,
146.0,3.5496,,
150.0,4.2083,,
154.0,4.6840,,
158.0,8.1604,,
162.0,1.9029,,
166.0,4.8304,,
170.0,6.6967,,
174.0,5.8550,,
178.0,5.1231,,
182.0,7.4285,,
186.0,7.7213,,
190.0,9.9901,,
194.0,7.2090,,
198.0,11.3441,,
202.0,14.0154,,
206.0,13.4665,,
210.0,13.4665,,
214.0,6.3307,,
218.0,9.9169,,
222.0,9.8437,,
226.0,13.6495,,
230.0,10.4292,,
234.0,9.6242,,
238.0,12.5151,,
242.0,17.3455,,
246.0,14.3082,,
250.0,15.6622,,
254.0,13.7593,,
258.0,12.9908,,
262.0,14.8205,,
266.0,16.6502,,
270.0,14.5278,,
274.0,17.4919,,
278.0,11.5271,,
282.0,15.8451,,
286.0,18.6263,,
290.0,15.2230,,
294.0,17.5650,,
298.0,14.4546,,
302.0,12.2223,,
306.0,12.8810,,
310.0,10.9050,,
314.0,14.0886,,
318.0,14.5643,,
322.0,17.3089,,
326.0,18.6994,,
330.0,15.6256,,
334.0,16.2477,,
338.0,17.0527,,
342.0,6.4771,,
346.0,11.7466,,
350.0,5.4159,,
354.0,16.5038,,
358.0,10.6122,,
362.0,10.2463,,
366.0,7.2090,,
370.0,10.6488,,
374.0,12.4785,,
378.0,15.8085,,
382.0,8.5996,,
386.0,13.1738,,
390.0,12.5151,,
394.0,9.5510,,
398.0,10.2463,,
402.0,8.2702,,
406.0,7.5017,,
410.0,9.7340,,
414.0,12.0394,,
418.0,7.1358,,
422.0,6.3307,,
426.0,6.2575,,
430.0,10.1731,,
434.0,8.9289,,
438.0,9.0387,,
442.0,8.1238,,
446.0,7.2456,,
450.0,10.5024,,
454.0,6.9894,,
458.0,9.1485,,
462.0,12.0760,,
466.0,5.3793,,
470.0,5.4891,,
474.0,7.5383,,
478.0,2.5250,,
482.0,6.5869,,
486.0,8.3800,,
490.0,7.1724,,
494.0,5.3061,,
498.0,4.6108,,
502.0,5.9648,,
506.0,7.5383,,
510.0,8.1604,,
514.0,8.5996,,
518.0,7.7945,,
522.0,4.3181,,
526.0,5.7818,,
530.0,5.9282,,
534.0,5.9282,,
538.0,3.4032,,
542.0,4.8304,,
546.0,4.9402,,
550.0,5.8184,,
554.0,6.6601,,
558.0,4.4644,,
562.0,4.3913,,
566.0,4.0253,,
570.0,3.3666,,
574.0,6.6235,,
578.0,4.5742,,
582.0,5.1231,,
586.0,4.7206,,
590.0,2.9641,,
594.0,2.5982,,
598.0,4.1717,,
602.0,5.8916,,
606.0,1.1710,,
610.0,4.6840,,
614.0,4.8304,,
618.0,3.1471,,
622.0,3.6594,,
626.0,2.4884,,
630.0,1.3540,,
634.0,4.5376,,
638.0,2.9641,,
642.0,3.1105,,
646.0,3.3666,,
650.0,3.1471,,
654.0,2.0493,,
658.0,2.8177,,
662.0,1.3174,,
666.0,1.4272,,
670.0,7.6115,,
674.0,2.4152,,
678.0,3.0373,,
682.0,4.9036,,
686.0,1.6467,,
690.0,3.8424,,
694.0,2.1224,,
698.0,0.6587,,
702.0,2.1956,,
706.0,2.5616,,
710.0,0.0000,,
714.0,3.7692,,
718.0,1.1710,,
722.0,3.2569,,
726.0,1.7931,,
730.0,2.3786,,
734.0,1.7931,,
738.0,4.1717,,
742.0,1.5735,,
746.0,1.6101,,
750.0,1.9395,,
754.0,1.8297,,
758.0,1.9761,,
762.0,1.6467,,
766.0,0.4757,,
770.0,1.6101,,
774.0,1.4638,,
778.0,1.9395,,
782.0,1.2076,,
786.0,0.6221,,
790.0,1.3906,,
794.0,0.9514,,
798.0,1.6101,,
802.0,2.0493,,
806.0,0.8051,,
810.0,0.6953,,
814.0,0.2196,,
818.0,1.4638,,
822.0,1.8663,,
826.0,0.4025,,
830.0,1.0978,,
834.0,1.3540,,
838.0,1.4638,,
842.0,1.5003,,
846.0,1.5369,,
850.0,0.8051,,
854.0,1.3540,,
858.0,0.7319,,
862.0,1.2442,,
866.0,0.7685,,
870.0,0.8783,,
874.0,2.1956,,
878.0,1.8663,,
882.0,0.8051,,
886.0,1.0246,,
890.0,0.4757,,
894.0,0.1830,,
898.0,0.4025,,
902.0,1.3540,,
906.0,0.9514,,
910.0,2.1590,,
914.0,0.6953,,
918.0,1.1710,,
922.0,1.2076,,
926.0,0.3659,,
930.0,0.5123,,
934.0,0.6221,,
938.0,0.3293,,
942.0,0.7319,,
946.0,1.5003,,
950.0,1.1710,,
954.0,0.9148,,
958.0,1.1344,,
962.0,1.3174,,
966.0,0.4757,,
970.0,0.4757,,
974.0,0.7319,,
978.0,0.1830,,
982.0,0.0000,,
986.0,0.9880,,
990.0,0.1830,,
994.0,0.7685,,
998.0,0.2562,,
1002.0,0.9514,,
1006.0,0.0000,,
1010.0,0.5123,,
1014.0,0.5855,,
1018.0,0.0000,,
1022.0,0.8051,,
1026.0,0.5489,,
1030.0,0.1830,,
1034.0,0.1830,,
1038.0,0.5123,,
1042.0,0.1830,,
1046.0,0.1830,,
1050.0,0.9148,,
1054.0,0.5489,,
1058.0,0.5489,,
1062.0,0.9880,,
1066.0,0.2196,,
1070.0,0.4391,,
1074.0,0.3659,,
1078.0,0.4391,,
1082.0,0.1830,,
1086.0,0.0000,,
1090.0,0.4391,,
1094.0,0.8417,,
1098.0,0.6221,,
1102.0,0.0000,,
1106.0,0.0000,,
1110.0,0.2562,,
1114.0,0.2196,,
1118.0,1.1344,,
1122.0,0.3659,,
1126.0,0.9880,,
1130.0,0.3659,,
1134.0,0.0000,,
1138.0,0.0000,,
1142.0,0.6953,,
1146.0,0.2928,,
1150.0,0.3659,,
1154.0,0.0000,,
1158.0,0.1830,,
1162.0,0.7319,,
1166.0,0.6587,,
1170.0,0.1830,,
1174.0,0.0000,,
1178.0,0.0000,,
1182.0,0.2196,,
1186.0,0.6587,,
1190.0,0.1830,,
1194.0,0.5855,,
1198.0,0.5123,,
1202.0,0.0000,,
1206.0,0.1830,,
1210.0,0.0000,,
1214.0,0.0000,,
1218.0,0.2562,,
1222.0,0.4757,,
1226.0,0.4025,,
1230.0,0.1830,,
1234.0,0.4025,,
1238.0,0.2928,,
1242.0,0.1830,,
1246.0,0.0000,,
1250.0,0.0000,,
1254.0,0.0000,,
1258.0,0.0000,,
1262.0,0.1830,,
1266.0,0.0000,,
1270.0,0.4757,,
1274.0,0.0000,,
1278.0,0.2196,,
1282.0,0.0000,,
1286.0,0.4391,,
1290.0,0.0000,,
1294.0,0.0000,,
1298.0,0.5123,,
1302.0,0.0000,,
1306.0,0.0000,,
1310.0,0.0000,,
1314.0,0.0000,,
1318.0,0.0000,,
1322.0,0.2562,,
1326.0,0.1830,,
1330.0,0.0000,,
1334.0,0.0000,,
1338.0,0.0000,,
1342.0,0.0000,,
1346.0,0.1830,,
1350.0,0.2196,,
1354.0,0.1830,,
1358.0,0.3293,,
1362.0,0.2562,,
1366.0,0.0000,,
1370.0,0.5855,,
1374.0,0.0000,,
1378.0,0.2562,,
1382.0,0.1830,,
1386.0,0.0000,,
1390.0,0.2196,,
1394.0,0.0000,,
1398.0,0.0000,,
1402.0,0.0000,,
1406.0,0.0000,,
1410.0,0.2196,,
1414.0,0.0000,,
1418.0,0.0000,,
1422.0,0.0000,,
1426.0,0.0000,,
1430.0,0.0000,,
1434.0,0.1830,,
1438.0,0.0000,,
1442.0,0.1830,,
1446.0,0.0000,,
1450.0,0.0000,,
1454.0,0.0000,,
1458.0,0.0000,,
1462.0,0.0000,,
1466.0,0.0000,,
1470.0,0.0000,,
1474.0,0.0000,,
1478.0,0.0000,,
1482.0,0.0000,,
1486.0,0.0000,,
1490.0,0.0000,,
1494.0,0.0000,,
1498.0,0.1830,,
1502.0,0.1830,,
1506.0,0.0000,,
1510.0,0.0000,,
1514.0,0.0000,,
1518.0,0.0000,,
1522.0,0.0000,,
1526.0,0.0000,,
1530.0,0.0000,,
1534.0,0.1830,,
1538.0,0.0000,,
1542.0,0.0000,,
1546.0,0.0000,,
1550.0,0.0000,,
1554.0,0.0000,,
1558.0,0.0000,,
1562.0,0.1830,,
1566.0,0.0000,,
1570.0,0.0000,,
1574.0,0.0000,,
1578.0,0.0000,,
1582.0,0.0000,,
1586.0,0.0000,,
1590.0,0.0000,,
1594.0,0.0000,,
1598.0,0.1830,,
1602.0,0.0000,,
1606.0,0.0000,,
1610.0,0.0000,,
1614.0,0.0000,,
1618.0,0.0000,,
1622.0,0.1830,,
1626.0,0.0000,,
1630.0,0.0000,,
1634.0,0.0000,,
1638.0,0.0000,,
1642.0,0.0000,,
1646.0,0.0000,,
1650.0,0.1830,,
1654.0,0.0000,,
1658.0,0.1830,,
1662.0,0.0000,,
1666.0,0.0000,,
1670.0,0.0000,,
1674.0,0.0000,,
1678.0,0.0000,,
1682.0,0.0000,,
1686.0,0.0000,,
1690.0,0.0000,,
1694.0,0.0000,,
1698.0,0.0000,,
1702.0,0.0000,,
1706.0,0.0000,,
1710.0,0.0000,,
1714.0,0.0000,,
1718.0,0.0000,,
1722.0,0.0000,,
1726.0,0.0000,,
1730.0,0.0000,,
1734.0,0.0000,,
1738.0,0.0000,,
1742.0,0.1830,,
1746.0,0.0000,,
1750.0,0.0000,,
1754.0,0.0000,,
1758.0,0.0000,,
1762.0,0.0000,,
1766.0,0.0000,,
1770.0,0.0000,,
1774.0,0.0000,,
1778.0,0.0000,,
1782.0,0.0000,,
1786.0,0.0000,,
1790.0,0.0000,,
1794.0,0.0000,,
1798.0,0.0000,,
1802.0,0.0000,,
1806.0,0.0000,,
1810.0,0.0000,,
1814.0,0.0000,,
1818.0,0.0000,,
1822.0,0.0000,,
1826.0,0.0000,,
1830.0,0.0000,,
1834.0,0.0000,,
1838.0,0.0000,,
1842.0,0.0000,,
1846.0,0.0000,,
1850.0,0.0000,,
1854.0,0.0000,,
1858.0,0.0000,,
1862.0,0.0000,,
1866.0,0.0000,,
1870.0,0.0000,,
1874.0,0.0000,,
1878.0,0.0000,,
1882.0,0.0000,,
1886.0,0.0000,,
1890.0,0.0000,,
1894.0,0.0000,,
1898.0,0.0000,,
1902.0,0.0000,,
1906.0,0.0000,,
1910.0,0.0000,,
1914.0,0.0000,,
1918.0,0.0000,,
1922.0,0.0000,,
1926.0,0.0000,,
1930.0,0.0000,,
1934.0,0.0000,,
1938.0,0.0000,,
1942.0,0.0000,,
1946.0,0.0000,,
1950.0,0.0000,,
1954.0,0.0000,,
1958.0,0.0000,,
1962.0,0.0000,,
1966.0,0.0000,,
1970.0,0.0000,,
1974.0,0.0000,,
1978.0,0.0000,,
1982.0,0.0000,,
1986.0,0.0000,,
1990.0,0.0000,,
1994.0,0.0000,,
1998.0,0.0000,,

[Percentile Undersize]
Percentile,Diffusion Coefficient (E4 nm²/s),
0,76,
1,142,
2,156,
3,165,
4,174,
5,181,
6,187,
7,193,
8,198,
9,203,
10,208,
11,212,
12,217,
13,221,
14,226,
15,230,
16,234,
17,238,
18,242,
19,246,
20,249,
21,253,
22,256,
23,260,
24,263,
25,267,
26,270,
27,273,
28,277,
29,280,
30,284,
31,287,
32,290,
33,294,
34,297,
35,301,
36,304,
37,308,
38,311,
39,315,
40,318,
41,322,
42,326,
43,329,
44,333,
45,337,
46,341,
47,345,
48,349,
49,353,
50,358,
51,362,
52,367,
53,371,
54,376,
55,381,
56,386,
57,391,
58,396,
59,401,
60,406,
61,412,
62,417,
63,423,
64,429,
65,435,
66,441,
67,447,
68,454,
69,461,
70,468,
71,475,
72,482,
73,490,
74,497,
75,505,
76,514,
77,522,
78,531,
79,541,
80,550,
81,561,
82,572,
83,583,
84,596,
85,609,
86,623,
87,639,
88,655,
89,673,
90,692,
91,714,
92,739,
93,767,
94,802,
95,843,
96,891,
97,950,
98,1034,
99,1169,
100,1999,

