[Software Info]
Build,NTA 2.3 build 0033

[Sample Information]
Operator,""
Sample Description,"coffee"
Diluent,"aqua dest."
Concentration,"1:4"
Pre-treatmeant,""
Comments,""

[Results Summary]
Total Frames,900
Processed Frames,900
Valid Tracks,5585
Overall Drift (nm/s),625.91
X-Drift (nm/s),-89.62
Y-Drift (nm/s),619.46
Calibration (nm/pixel),166

Size data - Model Fit,
Mean (nm),0.00
Standard Deviation (nm),0.00
Diffusion Coefficient Data,
Mode (E4 nm^2/s),285.00
Mean (E4 nm^2/s),603.23
Standard Deviation (E4 nm^2/s),329.64

User Line 1,205
User Line 2,588
Average # centres/frame,184.60
Average # particles/frame,147.86
Equivalent particle concentration (E8 particles/ml),23.01
Selected average # particles/frame,79.40
Selected equivalent particle concentration (E8 particles/ml),12.36

[Settings],
Background Extract,On
Brightness,0
Gain,1.00
Blur Size,Auto,
Detection Threshold Type,Multi,
Detection Threshold,20
Min Track Length,Auto
Min Expected Size (nm),Auto

[Measurement Conditions]
Camera Type,CCD
Camera Shutter (ms),8.00
Camera Gain,339
Frame rate (fps),30.00
Temperature (°C),23.90
Viscosity (cP),0.911

[Warnings]
Low Completed Tracks,No
High Noise,0 frames
Auto max jump,Successful
Drift off,No
Settings Changed Whilst Processing,No
Vibration detected,No vibration detected
Additional Errors,None

[Graph Data]
Diffusion Coefficient (E4 nm²/s), Concentration (E6 particles / ml),,
0,0.0000,,
1,0.0000,,
2,0.0000,,
3,0.0000,,
4,0.0000,,
5,0.0000,,
6,0.0000,,
7,0.0000,,
8,0.0000,,
9,0.0000,,
10,0.0000,,
11,0.0000,,
12,0.0000,,
13,0.0000,,
14,0.0000,,
15,0.0000,,
16,0.0000,,
17,0.0000,,
18,0.0000,,
19,0.0000,,
20,0.0000,,
21,0.0000,,
22,0.0000,,
23,0.0000,,
24,0.0000,,
25,0.0000,,
26,0.0000,,
27,0.0000,,
28,0.0000,,
29,0.0000,,
30,0.0000,,
31,0.0000,,
32,0.0000,,
33,0.0000,,
34,0.0000,,
35,0.0000,,
36,0.0000,,
37,0.0000,,
38,0.0000,,
39,0.0000,,
40,0.0000,,
41,0.0000,,
42,0.0000,,
43,0.0000,,
44,0.0000,,
45,0.0000,,
46,0.0000,,
47,0.0000,,
48,0.0000,,
49,0.0000,,
50,0.0000,,
51,0.0000,,
52,0.0000,,
53,0.0000,,
54,0.0000,,
55,0.0000,,
56,0.0000,,
57,0.0000,,
58,0.0000,,
59,0.0000,,
60,0.0000,,
61,0.0000,,
62,0.0000,,
63,0.0000,,
64,0.0000,,
65,0.0000,,
66,0.0000,,
67,0.0000,,
68,0.0000,,
69,0.0000,,
70,0.0000,,
71,0.0000,,
72,0.0000,,
73,0.0000,,
74,0.0000,,
75,0.0000,,
76,0.0000,,
77,0.0000,,
78,0.0000,,
79,0.0000,,
80,0.0000,,
81,0.0000,,
82,0.0000,,
83,0.0001,,
84,0.0001,,
85,0.0001,,
86,0.0002,,
87,0.0003,,
88,0.0005,,
89,0.0007,,
90,0.0010,,
91,0.0015,,
92,0.0020,,
93,0.0028,,
94,0.0037,,
95,0.0049,,
96,0.0063,,
97,0.0079,,
98,0.0099,,
99,0.0120,,
100,0.0144,,
101,0.0170,,
102,0.0196,,
103,0.0222,,
104,0.0247,,
105,0.0271,,
106,0.0292,,
107,0.0311,,
108,0.0326,,
109,0.0337,,
110,0.0346,,
111,0.0352,,
112,0.0358,,
113,0.0364,,
114,0.0373,,
115,0.0386,,
116,0.0407,,
117,0.0436,,
118,0.0476,,
119,0.0530,,
120,0.0598,,
121,0.0682,,
122,0.0782,,
123,0.0899,,
124,0.1033,,
125,0.1184,,
126,0.1351,,
127,0.1532,,
128,0.1726,,
129,0.1932,,
130,0.2148,,
131,0.2372,,
132,0.2603,,
133,0.2837,,
134,0.3073,,
135,0.3310,,
136,0.3546,,
137,0.3779,,
138,0.4009,,
139,0.4234,,
140,0.4454,,
141,0.4670,,
142,0.4881,,
143,0.5088,,
144,0.5293,,
145,0.5495,,
146,0.5698,,
147,0.5903,,
148,0.6111,,
149,0.6326,,
150,0.6548,,
151,0.6780,,
152,0.7023,,
153,0.7279,,
154,0.7550,,
155,0.7835,,
156,0.8135,,
157,0.8450,,
158,0.8778,,
159,0.9119,,
160,0.9471,,
161,0.9832,,
162,1.0199,,
163,1.0571,,
164,1.0944,,
165,1.1315,,
166,1.1683,,
167,1.2044,,
168,1.2397,,
169,1.2740,,
170,1.3071,,
171,1.3388,,
172,1.3691,,
173,1.3979,,
174,1.4253,,
175,1.4511,,
176,1.4756,,
177,1.4987,,
178,1.5206,,
179,1.5414,,
180,1.5612,,
181,1.5801,,
182,1.5985,,
183,1.6163,,
184,1.6339,,
185,1.6514,,
186,1.6689,,
187,1.6867,,
188,1.7050,,
189,1.7238,,
190,1.7435,,
191,1.7640,,
192,1.7857,,
193,1.8085,,
194,1.8327,,
195,1.8583,,
196,1.8853,,
197,1.9138,,
198,1.9440,,
199,1.9756,,
200,2.0087,,
201,2.0434,,
202,2.0793,,
203,2.1167,,
204,2.1551,,
205,2.1946,,
206,2.2349,,
207,2.2759,,
208,2.3174,,
209,2.3592,,
210,2.4011,,
211,2.4429,,
212,2.4845,,
213,2.5255,,
214,2.5659,,
215,2.6053,,
216,2.6438,,
217,2.6812,,
218,2.7173,,
219,2.7520,,
220,2.7852,,
221,2.8169,,
222,2.8471,,
223,2.8757,,
224,2.9027,,
225,2.9282,,
226,2.9523,,
227,2.9749,,
228,2.9962,,
229,3.0163,,
230,3.0352,,
231,3.0532,,
232,3.0703,,
233,3.0867,,
234,3.1025,,
235,3.1178,,
236,3.1328,,
237,3.1476,,
238,3.1624,,
239,3.1772,,
240,3.1922,,
241,3.2075,,
242,3.2231,,
243,3.2391,,
244,3.2557,,
245,3.2728,,
246,3.2904,,
247,3.3087,,
248,3.3275,,
249,3.3469,,
250,3.3669,,
251,3.3875,,
252,3.4085,,
253,3.4300,,
254,3.4518,,
255,3.4740,,
256,3.4963,,
257,3.5188,,
258,3.5414,,
259,3.5639,,
260,3.5862,,
261,3.6084,,
262,3.6302,,
263,3.6516,,
264,3.6725,,
265,3.6929,,
266,3.7126,,
267,3.7315,,
268,3.7497,,
269,3.7670,,
270,3.7834,,
271,3.7988,,
272,3.8132,,
273,3.8266,,
274,3.8390,,
275,3.8503,,
276,3.8604,,
277,3.8695,,
278,3.8775,,
279,3.8843,,
280,3.8901,,
281,3.8948,,
282,3.8984,,
283,3.9009,,
284,3.9025,,
285,3.9030,,
286,3.9025,,
287,3.9011,,
288,3.8988,,
289,3.8956,,
290,3.8916,,
291,3.8867,,
292,3.8811,,
293,3.8747,,
294,3.8677,,
295,3.8600,,
296,3.8517,,
297,3.8430,,
298,3.8337,,
299,3.8240,,
300,3.8138,,
301,3.8034,,
302,3.7927,,
303,3.7817,,
304,3.7706,,
305,3.7594,,
306,3.7481,,
307,3.7368,,
308,3.7256,,
309,3.7145,,
310,3.7036,,
311,3.6929,,
312,3.6824,,
313,3.6724,,
314,3.6626,,
315,3.6533,,
316,3.6445,,
317,3.6361,,
318,3.6283,,
319,3.6210,,
320,3.6143,,
321,3.6083,,
322,3.6029,,
323,3.5981,,
324,3.5940,,
325,3.5905,,
326,3.5877,,
327,3.5856,,
328,3.5840,,
329,3.5831,,
330,3.5829,,
331,3.5832,,
332,3.5842,,
333,3.5857,,
334,3.5877,,
335,3.5902,,
336,3.5932,,
337,3.5967,,
338,3.6005,,
339,3.6048,,
340,3.6093,,
341,3.6141,,
342,3.6193,,
343,3.6246,,
344,3.6300,,
345,3.6357,,
346,3.6414,,
347,3.6473,,
348,3.6532,,
349,3.6591,,
350,3.6649,,
351,3.6708,,
352,3.6764,,
353,3.6820,,
354,3.6875,,
355,3.6928,,
356,3.6979,,
357,3.7028,,
358,3.7074,,
359,3.7118,,
360,3.7158,,
361,3.7196,,
362,3.7231,,
363,3.7262,,
364,3.7290,,
365,3.7314,,
366,3.7334,,
367,3.7350,,
368,3.7362,,
369,3.7370,,
370,3.7373,,
371,3.7372,,
372,3.7367,,
373,3.7357,,
374,3.7342,,
375,3.7322,,
376,3.7298,,
377,3.7268,,
378,3.7234,,
379,3.7195,,
380,3.7151,,
381,3.7102,,
382,3.7048,,
383,3.6989,,
384,3.6925,,
385,3.6857,,
386,3.6784,,
387,3.6705,,
388,3.6623,,
389,3.6535,,
390,3.6444,,
391,3.6347,,
392,3.6247,,
393,3.6143,,
394,3.6035,,
395,3.5923,,
396,3.5808,,
397,3.5689,,
398,3.5567,,
399,3.5443,,
400,3.5316,,
401,3.5187,,
402,3.5056,,
403,3.4922,,
404,3.4787,,
405,3.4651,,
406,3.4513,,
407,3.4375,,
408,3.4236,,
409,3.4097,,
410,3.3958,,
411,3.3818,,
412,3.3680,,
413,3.3542,,
414,3.3404,,
415,3.3268,,
416,3.3133,,
417,3.2999,,
418,3.2868,,
419,3.2738,,
420,3.2610,,
421,3.2484,,
422,3.2360,,
423,3.2239,,
424,3.2120,,
425,3.2004,,
426,3.1890,,
427,3.1780,,
428,3.1672,,
429,3.1567,,
430,3.1464,,
431,3.1365,,
432,3.1268,,
433,3.1174,,
434,3.1084,,
435,3.0995,,
436,3.0910,,
437,3.0827,,
438,3.0747,,
439,3.0670,,
440,3.0596,,
441,3.0523,,
442,3.0454,,
443,3.0387,,
444,3.0322,,
445,3.0259,,
446,3.0199,,
447,3.0141,,
448,3.0084,,
449,3.0030,,
450,2.9978,,
451,2.9928,,
452,2.9879,,
453,2.9832,,
454,2.9787,,
455,2.9744,,
456,2.9702,,
457,2.9662,,
458,2.9623,,
459,2.9586,,
460,2.9551,,
461,2.9517,,
462,2.9484,,
463,2.9453,,
464,2.9423,,
465,2.9395,,
466,2.9368,,
467,2.9342,,
468,2.9318,,
469,2.9295,,
470,2.9274,,
471,2.9253,,
472,2.9235,,
473,2.9217,,
474,2.9201,,
475,2.9186,,
476,2.9173,,
477,2.9160,,
478,2.9149,,
479,2.9140,,
480,2.9131,,
481,2.9124,,
482,2.9118,,
483,2.9113,,
484,2.9109,,
485,2.9107,,
486,2.9105,,
487,2.9105,,
488,2.9105,,
489,2.9107,,
490,2.9109,,
491,2.9112,,
492,2.9116,,
493,2.9121,,
494,2.9126,,
495,2.9132,,
496,2.9138,,
497,2.9145,,
498,2.9152,,
499,2.9160,,
500,2.9167,,
501,2.9175,,
502,2.9182,,
503,2.9190,,
504,2.9197,,
505,2.9204,,
506,2.9211,,
507,2.9217,,
508,2.9223,,
509,2.9227,,
510,2.9231,,
511,2.9234,,
512,2.9237,,
513,2.9238,,
514,2.9238,,
515,2.9236,,
516,2.9234,,
517,2.9229,,
518,2.9224,,
519,2.9216,,
520,2.9207,,
521,2.9196,,
522,2.9183,,
523,2.9168,,
524,2.9151,,
525,2.9132,,
526,2.9111,,
527,2.9087,,
528,2.9062,,
529,2.9033,,
530,2.9003,,
531,2.8970,,
532,2.8934,,
533,2.8896,,
534,2.8855,,
535,2.8812,,
536,2.8765,,
537,2.8717,,
538,2.8665,,
539,2.8611,,
540,2.8554,,
541,2.8495,,
542,2.8433,,
543,2.8368,,
544,2.8301,,
545,2.8231,,
546,2.8159,,
547,2.8084,,
548,2.8006,,
549,2.7926,,
550,2.7844,,
551,2.7760,,
552,2.7673,,
553,2.7584,,
554,2.7492,,
555,2.7399,,
556,2.7304,,
557,2.7207,,
558,2.7109,,
559,2.7008,,
560,2.6906,,
561,2.6802,,
562,2.6697,,
563,2.6591,,
564,2.6483,,
565,2.6374,,
566,2.6265,,
567,2.6154,,
568,2.6043,,
569,2.5931,,
570,2.5818,,
571,2.5705,,
572,2.5591,,
573,2.5477,,
574,2.5363,,
575,2.5249,,
576,2.5135,,
577,2.5022,,
578,2.4908,,
579,2.4795,,
580,2.4682,,
581,2.4570,,
582,2.4459,,
583,2.4348,,
584,2.4238,,
585,2.4129,,
586,2.4022,,
587,2.3915,,
588,2.3809,,
589,2.3705,,
590,2.3602,,
591,2.3501,,
592,2.3401,,
593,2.3302,,
594,2.3206,,
595,2.3110,,
596,2.3017,,
597,2.2925,,
598,2.2836,,
599,2.2748,,
600,2.2662,,
601,2.2578,,
602,2.2496,,
603,2.2416,,
604,2.2338,,
605,2.2262,,
606,2.2188,,
607,2.2117,,
608,2.2048,,
609,2.1980,,
610,2.1915,,
611,2.1852,,
612,2.1791,,
613,2.1732,,
614,2.1675,,
615,2.1621,,
616,2.1568,,
617,2.1518,,
618,2.1470,,
619,2.1424,,
620,2.1379,,
621,2.1337,,
622,2.1297,,
623,2.1258,,
624,2.1222,,
625,2.1187,,
626,2.1155,,
627,2.1124,,
628,2.1095,,
629,2.1067,,
630,2.1041,,
631,2.1017,,
632,2.0994,,
633,2.0973,,
634,2.0953,,
635,2.0934,,
636,2.0917,,
637,2.0902,,
638,2.0887,,
639,2.0874,,
640,2.0862,,
641,2.0850,,
642,2.0840,,
643,2.0831,,
644,2.0823,,
645,2.0816,,
646,2.0809,,
647,2.0803,,
648,2.0798,,
649,2.0793,,
650,2.0789,,
651,2.0786,,
652,2.0783,,
653,2.0780,,
654,2.0777,,
655,2.0775,,
656,2.0774,,
657,2.0772,,
658,2.0770,,
659,2.0769,,
660,2.0768,,
661,2.0766,,
662,2.0765,,
663,2.0763,,
664,2.0762,,
665,2.0760,,
666,2.0758,,
667,2.0756,,
668,2.0753,,
669,2.0750,,
670,2.0747,,
671,2.0743,,
672,2.0739,,
673,2.0735,,
674,2.0730,,
675,2.0725,,
676,2.0719,,
677,2.0712,,
678,2.0705,,
679,2.0698,,
680,2.0689,,
681,2.0681,,
682,2.0671,,
683,2.0661,,
684,2.0650,,
685,2.0639,,
686,2.0627,,
687,2.0614,,
688,2.0601,,
689,2.0586,,
690,2.0572,,
691,2.0556,,
692,2.0540,,
693,2.0523,,
694,2.0505,,
695,2.0486,,
696,2.0467,,
697,2.0448,,
698,2.0427,,
699,2.0406,,
700,2.0384,,
701,2.0362,,
702,2.0339,,
703,2.0315,,
704,2.0290,,
705,2.0265,,
706,2.0239,,
707,2.0213,,
708,2.0186,,
709,2.0159,,
710,2.0131,,
711,2.0102,,
712,2.0073,,
713,2.0043,,
714,2.0013,,
715,1.9982,,
716,1.9951,,
717,1.9919,,
718,1.9887,,
719,1.9854,,
720,1.9821,,
721,1.9788,,
722,1.9754,,
723,1.9720,,
724,1.9685,,
725,1.9650,,
726,1.9615,,
727,1.9579,,
728,1.9543,,
729,1.9507,,
730,1.9470,,
731,1.9434,,
732,1.9396,,
733,1.9359,,
734,1.9322,,
735,1.9284,,
736,1.9246,,
737,1.9208,,
738,1.9170,,
739,1.9131,,
740,1.9093,,
741,1.9054,,
742,1.9015,,
743,1.8976,,
744,1.8937,,
745,1.8898,,
746,1.8859,,
747,1.8819,,
748,1.8780,,
749,1.8741,,
750,1.8701,,
751,1.8662,,
752,1.8622,,
753,1.8583,,
754,1.8544,,
755,1.8504,,
756,1.8465,,
757,1.8425,,
758,1.8386,,
759,1.8346,,
760,1.8307,,
761,1.8268,,
762,1.8228,,
763,1.8189,,
764,1.8150,,
765,1.8111,,
766,1.8072,,
767,1.8033,,
768,1.7994,,
769,1.7955,,
770,1.7916,,
771,1.7877,,
772,1.7838,,
773,1.7800,,
774,1.7761,,
775,1.7723,,
776,1.7684,,
777,1.7646,,
778,1.7608,,
779,1.7569,,
780,1.7531,,
781,1.7493,,
782,1.7455,,
783,1.7417,,
784,1.7380,,
785,1.7342,,
786,1.7304,,
787,1.7266,,
788,1.7229,,
789,1.7191,,
790,1.7154,,
791,1.7116,,
792,1.7079,,
793,1.7041,,
794,1.7004,,
795,1.6966,,
796,1.6929,,
797,1.6892,,
798,1.6854,,
799,1.6817,,
800,1.6780,,
801,1.6743,,
802,1.6705,,
803,1.6668,,
804,1.6631,,
805,1.6593,,
806,1.6556,,
807,1.6519,,
808,1.6481,,
809,1.6444,,
810,1.6406,,
811,1.6368,,
812,1.6331,,
813,1.6293,,
814,1.6256,,
815,1.6218,,
816,1.6180,,
817,1.6142,,
818,1.6104,,
819,1.6066,,
820,1.6028,,
821,1.5990,,
822,1.5951,,
823,1.5913,,
824,1.5874,,
825,1.5836,,
826,1.5797,,
827,1.5758,,
828,1.5719,,
829,1.5680,,
830,1.5641,,
831,1.5602,,
832,1.5562,,
833,1.5523,,
834,1.5483,,
835,1.5443,,
836,1.5403,,
837,1.5363,,
838,1.5323,,
839,1.5283,,
840,1.5243,,
841,1.5202,,
842,1.5162,,
843,1.5121,,
844,1.5080,,
845,1.5039,,
846,1.4998,,
847,1.4957,,
848,1.4915,,
849,1.4874,,
850,1.4833,,
851,1.4791,,
852,1.4749,,
853,1.4707,,
854,1.4665,,
855,1.4624,,
856,1.4581,,
857,1.4539,,
858,1.4497,,
859,1.4454,,
860,1.4412,,
861,1.4370,,
862,1.4327,,
863,1.4285,,
864,1.4242,,
865,1.4199,,
866,1.4157,,
867,1.4114,,
868,1.4071,,
869,1.4028,,
870,1.3985,,
871,1.3943,,
872,1.3900,,
873,1.3857,,
874,1.3814,,
875,1.3771,,
876,1.3728,,
877,1.3685,,
878,1.3643,,
879,1.3600,,
880,1.3557,,
881,1.3515,,
882,1.3472,,
883,1.3429,,
884,1.3387,,
885,1.3345,,
886,1.3302,,
887,1.3260,,
888,1.3218,,
889,1.3176,,
890,1.3134,,
891,1.3092,,
892,1.3050,,
893,1.3009,,
894,1.2967,,
895,1.2926,,
896,1.2885,,
897,1.2844,,
898,1.2803,,
899,1.2762,,
900,1.2721,,
901,1.2681,,
902,1.2641,,
903,1.2600,,
904,1.2561,,
905,1.2521,,
906,1.2481,,
907,1.2442,,
908,1.2403,,
909,1.2364,,
910,1.2325,,
911,1.2286,,
912,1.2248,,
913,1.2209,,
914,1.2171,,
915,1.2133,,
916,1.2096,,
917,1.2058,,
918,1.2021,,
919,1.1984,,
920,1.1947,,
921,1.1911,,
922,1.1875,,
923,1.1838,,
924,1.1803,,
925,1.1767,,
926,1.1731,,
927,1.1696,,
928,1.1661,,
929,1.1626,,
930,1.1592,,
931,1.1557,,
932,1.1523,,
933,1.1489,,
934,1.1455,,
935,1.1422,,
936,1.1388,,
937,1.1355,,
938,1.1322,,
939,1.1289,,
940,1.1257,,
941,1.1224,,
942,1.1192,,
943,1.1160,,
944,1.1128,,
945,1.1097,,
946,1.1065,,
947,1.1034,,
948,1.1003,,
949,1.0972,,
950,1.0941,,
951,1.0911,,
952,1.0880,,
953,1.0850,,
954,1.0820,,
955,1.0790,,
956,1.0760,,
957,1.0730,,
958,1.0701,,
959,1.0671,,
960,1.0642,,
961,1.0613,,
962,1.0584,,
963,1.0555,,
964,1.0526,,
965,1.0497,,
966,1.0469,,
967,1.0440,,
968,1.0412,,
969,1.0383,,
970,1.0355,,
971,1.0327,,
972,1.0299,,
973,1.0271,,
974,1.0243,,
975,1.0215,,
976,1.0187,,
977,1.0159,,
978,1.0132,,
979,1.0104,,
980,1.0076,,
981,1.0049,,
982,1.0021,,
983,0.9994,,
984,0.9966,,
985,0.9939,,
986,0.9911,,
987,0.9884,,
988,0.9857,,
989,0.9829,,
990,0.9802,,
991,0.9775,,
992,0.9748,,
993,0.9720,,
994,0.9693,,
995,0.9666,,
996,0.9639,,
997,0.9611,,
998,0.9584,,
999,0.9557,,
1000,0.9530,,
1001,0.9502,,
1002,0.9475,,
1003,0.9448,,
1004,0.9421,,
1005,0.9393,,
1006,0.9366,,
1007,0.9339,,
1008,0.9312,,
1009,0.9284,,
1010,0.9257,,
1011,0.9230,,
1012,0.9202,,
1013,0.9175,,
1014,0.9147,,
1015,0.9120,,
1016,0.9093,,
1017,0.9065,,
1018,0.9038,,
1019,0.9010,,
1020,0.8983,,
1021,0.8955,,
1022,0.8928,,
1023,0.8900,,
1024,0.8873,,
1025,0.8845,,
1026,0.8818,,
1027,0.8790,,
1028,0.8763,,
1029,0.8735,,
1030,0.8708,,
1031,0.8680,,
1032,0.8653,,
1033,0.8625,,
1034,0.8598,,
1035,0.8570,,
1036,0.8543,,
1037,0.8515,,
1038,0.8487,,
1039,0.8460,,
1040,0.8432,,
1041,0.8405,,
1042,0.8377,,
1043,0.8350,,
1044,0.8323,,
1045,0.8295,,
1046,0.8268,,
1047,0.8240,,
1048,0.8213,,
1049,0.8186,,
1050,0.8158,,
1051,0.8131,,
1052,0.8104,,
1053,0.8077,,
1054,0.8050,,
1055,0.8022,,
1056,0.7995,,
1057,0.7968,,
1058,0.7941,,
1059,0.7915,,
1060,0.7888,,
1061,0.7861,,
1062,0.7834,,
1063,0.7808,,
1064,0.7781,,
1065,0.7754,,
1066,0.7728,,
1067,0.7702,,
1068,0.7675,,
1069,0.7649,,
1070,0.7623,,
1071,0.7597,,
1072,0.7571,,
1073,0.7545,,
1074,0.7519,,
1075,0.7493,,
1076,0.7468,,
1077,0.7442,,
1078,0.7417,,
1079,0.7391,,
1080,0.7366,,
1081,0.7341,,
1082,0.7316,,
1083,0.7291,,
1084,0.7266,,
1085,0.7241,,
1086,0.7216,,
1087,0.7192,,
1088,0.7167,,
1089,0.7143,,
1090,0.7119,,
1091,0.7095,,
1092,0.7071,,
1093,0.7047,,
1094,0.7023,,
1095,0.7000,,
1096,0.6976,,
1097,0.6953,,
1098,0.6930,,
1099,0.6906,,
1100,0.6884,,
1101,0.6861,,
1102,0.6838,,
1103,0.6815,,
1104,0.6793,,
1105,0.6771,,
1106,0.6749,,
1107,0.6727,,
1108,0.6705,,
1109,0.6683,,
1110,0.6661,,
1111,0.6640,,
1112,0.6619,,
1113,0.6598,,
1114,0.6577,,
1115,0.6556,,
1116,0.6535,,
1117,0.6515,,
1118,0.6494,,
1119,0.6474,,
1120,0.6454,,
1121,0.6434,,
1122,0.6414,,
1123,0.6394,,
1124,0.6375,,
1125,0.6355,,
1126,0.6336,,
1127,0.6317,,
1128,0.6298,,
1129,0.6280,,
1130,0.6261,,
1131,0.6242,,
1132,0.6224,,
1133,0.6206,,
1134,0.6188,,
1135,0.6170,,
1136,0.6152,,
1137,0.6135,,
1138,0.6117,,
1139,0.6100,,
1140,0.6083,,
1141,0.6066,,
1142,0.6049,,
1143,0.6033,,
1144,0.6016,,
1145,0.6000,,
1146,0.5983,,
1147,0.5967,,
1148,0.5951,,
1149,0.5936,,
1150,0.5920,,
1151,0.5904,,
1152,0.5889,,
1153,0.5874,,
1154,0.5859,,
1155,0.5844,,
1156,0.5829,,
1157,0.5814,,
1158,0.5799,,
1159,0.5785,,
1160,0.5770,,
1161,0.5756,,
1162,0.5742,,
1163,0.5728,,
1164,0.5714,,
1165,0.5701,,
1166,0.5687,,
1167,0.5673,,
1168,0.5660,,
1169,0.5647,,
1170,0.5634,,
1171,0.5621,,
1172,0.5608,,
1173,0.5595,,
1174,0.5582,,
1175,0.5570,,
1176,0.5557,,
1177,0.5545,,
1178,0.5532,,
1179,0.5520,,
1180,0.5508,,
1181,0.5496,,
1182,0.5484,,
1183,0.5472,,
1184,0.5460,,
1185,0.5449,,
1186,0.5437,,
1187,0.5426,,
1188,0.5414,,
1189,0.5403,,
1190,0.5392,,
1191,0.5380,,
1192,0.5369,,
1193,0.5358,,
1194,0.5347,,
1195,0.5336,,
1196,0.5326,,
1197,0.5315,,
1198,0.5304,,
1199,0.5294,,
1200,0.5283,,
1201,0.5272,,
1202,0.5262,,
1203,0.5252,,
1204,0.5241,,
1205,0.5231,,
1206,0.5221,,
1207,0.5210,,
1208,0.5200,,
1209,0.5190,,
1210,0.5180,,
1211,0.5170,,
1212,0.5160,,
1213,0.5150,,
1214,0.5140,,
1215,0.5130,,
1216,0.5120,,
1217,0.5110,,
1218,0.5100,,
1219,0.5091,,
1220,0.5081,,
1221,0.5071,,
1222,0.5061,,
1223,0.5052,,
1224,0.5042,,
1225,0.5032,,
1226,0.5023,,
1227,0.5013,,
1228,0.5003,,
1229,0.4994,,
1230,0.4984,,
1231,0.4974,,
1232,0.4965,,
1233,0.4955,,
1234,0.4946,,
1235,0.4936,,
1236,0.4926,,
1237,0.4917,,
1238,0.4907,,
1239,0.4898,,
1240,0.4888,,
1241,0.4878,,
1242,0.4869,,
1243,0.4859,,
1244,0.4850,,
1245,0.4840,,
1246,0.4830,,
1247,0.4821,,
1248,0.4811,,
1249,0.4801,,
1250,0.4792,,
1251,0.4782,,
1252,0.4772,,
1253,0.4763,,
1254,0.4753,,
1255,0.4743,,
1256,0.4733,,
1257,0.4724,,
1258,0.4714,,
1259,0.4704,,
1260,0.4694,,
1261,0.4684,,
1262,0.4674,,
1263,0.4664,,
1264,0.4655,,
1265,0.4645,,
1266,0.4635,,
1267,0.4625,,
1268,0.4615,,
1269,0.4605,,
1270,0.4595,,
1271,0.4584,,
1272,0.4574,,
1273,0.4564,,
1274,0.4554,,
1275,0.4544,,
1276,0.4534,,
1277,0.4523,,
1278,0.4513,,
1279,0.4503,,
1280,0.4493,,
1281,0.4482,,
1282,0.4472,,
1283,0.4462,,
1284,0.4451,,
1285,0.4441,,
1286,0.4430,,
1287,0.4420,,
1288,0.4409,,
1289,0.4399,,
1290,0.4388,,
1291,0.4378,,
1292,0.4367,,
1293,0.4356,,
1294,0.4346,,
1295,0.4335,,
1296,0.4324,,
1297,0.4314,,
1298,0.4303,,
1299,0.4292,,
1300,0.4281,,
1301,0.4270,,
1302,0.4259,,
1303,0.4249,,
1304,0.4238,,
1305,0.4227,,
1306,0.4216,,
1307,0.4205,,
1308,0.4194,,
1309,0.4183,,
1310,0.4172,,
1311,0.4161,,
1312,0.4150,,
1313,0.4139,,
1314,0.4127,,
1315,0.4116,,
1316,0.4105,,
1317,0.4094,,
1318,0.4083,,
1319,0.4071,,
1320,0.4060,,
1321,0.4049,,
1322,0.4038,,
1323,0.4026,,
1324,0.4015,,
1325,0.4004,,
1326,0.3992,,
1327,0.3981,,
1328,0.3970,,
1329,0.3958,,
1330,0.3947,,
1331,0.3935,,
1332,0.3924,,
1333,0.3913,,
1334,0.3901,,
1335,0.3890,,
1336,0.3878,,
1337,0.3867,,
1338,0.3855,,
1339,0.3843,,
1340,0.3832,,
1341,0.3820,,
1342,0.3809,,
1343,0.3797,,
1344,0.3786,,
1345,0.3774,,
1346,0.3762,,
1347,0.3751,,
1348,0.3739,,
1349,0.3727,,
1350,0.3716,,
1351,0.3704,,
1352,0.3692,,
1353,0.3681,,
1354,0.3669,,
1355,0.3657,,
1356,0.3646,,
1357,0.3634,,
1358,0.3622,,
1359,0.3610,,
1360,0.3599,,
1361,0.3587,,
1362,0.3575,,
1363,0.3563,,
1364,0.3552,,
1365,0.3540,,
1366,0.3528,,
1367,0.3516,,
1368,0.3504,,
1369,0.3493,,
1370,0.3481,,
1371,0.3469,,
1372,0.3457,,
1373,0.3445,,
1374,0.3434,,
1375,0.3422,,
1376,0.3410,,
1377,0.3398,,
1378,0.3386,,
1379,0.3374,,
1380,0.3363,,
1381,0.3351,,
1382,0.3339,,
1383,0.3327,,
1384,0.3315,,
1385,0.3303,,
1386,0.3292,,
1387,0.3280,,
1388,0.3268,,
1389,0.3256,,
1390,0.3244,,
1391,0.3232,,
1392,0.3220,,
1393,0.3209,,
1394,0.3197,,
1395,0.3185,,
1396,0.3173,,
1397,0.3161,,
1398,0.3149,,
1399,0.3138,,
1400,0.3126,,
1401,0.3114,,
1402,0.3102,,
1403,0.3090,,
1404,0.3078,,
1405,0.3067,,
1406,0.3055,,
1407,0.3043,,
1408,0.3031,,
1409,0.3019,,
1410,0.3007,,
1411,0.2996,,
1412,0.2984,,
1413,0.2972,,
1414,0.2960,,
1415,0.2948,,
1416,0.2937,,
1417,0.2925,,
1418,0.2913,,
1419,0.2901,,
1420,0.2890,,
1421,0.2878,,
1422,0.2866,,
1423,0.2854,,
1424,0.2843,,
1425,0.2831,,
1426,0.2819,,
1427,0.2807,,
1428,0.2796,,
1429,0.2784,,
1430,0.2772,,
1431,0.2761,,
1432,0.2749,,
1433,0.2737,,
1434,0.2726,,
1435,0.2714,,
1436,0.2702,,
1437,0.2691,,
1438,0.2679,,
1439,0.2667,,
1440,0.2656,,
1441,0.2644,,
1442,0.2633,,
1443,0.2621,,
1444,0.2610,,
1445,0.2598,,
1446,0.2586,,
1447,0.2575,,
1448,0.2563,,
1449,0.2552,,
1450,0.2540,,
1451,0.2529,,
1452,0.2518,,
1453,0.2506,,
1454,0.2495,,
1455,0.2483,,
1456,0.2472,,
1457,0.2460,,
1458,0.2449,,
1459,0.2438,,
1460,0.2426,,
1461,0.2415,,
1462,0.2404,,
1463,0.2393,,
1464,0.2381,,
1465,0.2370,,
1466,0.2359,,
1467,0.2348,,
1468,0.2337,,
1469,0.2325,,
1470,0.2314,,
1471,0.2303,,
1472,0.2292,,
1473,0.2281,,
1474,0.2270,,
1475,0.2259,,
1476,0.2248,,
1477,0.2237,,
1478,0.2226,,
1479,0.2215,,
1480,0.2204,,
1481,0.2193,,
1482,0.2182,,
1483,0.2172,,
1484,0.2161,,
1485,0.2150,,
1486,0.2139,,
1487,0.2129,,
1488,0.2118,,
1489,0.2107,,
1490,0.2097,,
1491,0.2086,,
1492,0.2075,,
1493,0.2065,,
1494,0.2054,,
1495,0.2044,,
1496,0.2033,,
1497,0.2023,,
1498,0.2013,,
1499,0.2002,,
1500,0.1992,,
1501,0.1982,,
1502,0.1971,,
1503,0.1961,,
1504,0.1951,,
1505,0.1941,,
1506,0.1931,,
1507,0.1920,,
1508,0.1910,,
1509,0.1900,,
1510,0.1890,,
1511,0.1880,,
1512,0.1870,,
1513,0.1861,,
1514,0.1851,,
1515,0.1841,,
1516,0.1831,,
1517,0.1821,,
1518,0.1812,,
1519,0.1802,,
1520,0.1792,,
1521,0.1783,,
1522,0.1773,,
1523,0.1764,,
1524,0.1754,,
1525,0.1745,,
1526,0.1736,,
1527,0.1726,,
1528,0.1717,,
1529,0.1708,,
1530,0.1698,,
1531,0.1689,,
1532,0.1680,,
1533,0.1671,,
1534,0.1662,,
1535,0.1653,,
1536,0.1644,,
1537,0.1635,,
1538,0.1626,,
1539,0.1617,,
1540,0.1609,,
1541,0.1600,,
1542,0.1591,,
1543,0.1583,,
1544,0.1574,,
1545,0.1565,,
1546,0.1557,,
1547,0.1548,,
1548,0.1540,,
1549,0.1532,,
1550,0.1523,,
1551,0.1515,,
1552,0.1507,,
1553,0.1499,,
1554,0.1490,,
1555,0.1482,,
1556,0.1474,,
1557,0.1466,,
1558,0.1458,,
1559,0.1450,,
1560,0.1442,,
1561,0.1435,,
1562,0.1427,,
1563,0.1419,,
1564,0.1412,,
1565,0.1404,,
1566,0.1396,,
1567,0.1389,,
1568,0.1381,,
1569,0.1374,,
1570,0.1367,,
1571,0.1359,,
1572,0.1352,,
1573,0.1345,,
1574,0.1337,,
1575,0.1330,,
1576,0.1323,,
1577,0.1316,,
1578,0.1309,,
1579,0.1302,,
1580,0.1295,,
1581,0.1288,,
1582,0.1282,,
1583,0.1275,,
1584,0.1268,,
1585,0.1261,,
1586,0.1255,,
1587,0.1248,,
1588,0.1242,,
1589,0.1235,,
1590,0.1229,,
1591,0.1222,,
1592,0.1216,,
1593,0.1210,,
1594,0.1204,,
1595,0.1197,,
1596,0.1191,,
1597,0.1185,,
1598,0.1179,,
1599,0.1173,,
1600,0.1167,,
1601,0.1161,,
1602,0.1155,,
1603,0.1150,,
1604,0.1144,,
1605,0.1138,,
1606,0.1132,,
1607,0.1127,,
1608,0.1121,,
1609,0.1115,,
1610,0.1110,,
1611,0.1104,,
1612,0.1099,,
1613,0.1094,,
1614,0.1088,,
1615,0.1083,,
1616,0.1078,,
1617,0.1073,,
1618,0.1067,,
1619,0.1062,,
1620,0.1057,,
1621,0.1052,,
1622,0.1047,,
1623,0.1042,,
1624,0.1037,,
1625,0.1032,,
1626,0.1028,,
1627,0.1023,,
1628,0.1018,,
1629,0.1013,,
1630,0.1009,,
1631,0.1004,,
1632,0.0999,,
1633,0.0995,,
1634,0.0990,,
1635,0.0986,,
1636,0.0981,,
1637,0.0977,,
1638,0.0973,,
1639,0.0968,,
1640,0.0964,,
1641,0.0960,,
1642,0.0955,,
1643,0.0951,,
1644,0.0947,,
1645,0.0943,,
1646,0.0939,,
1647,0.0935,,
1648,0.0931,,
1649,0.0927,,
1650,0.0923,,
1651,0.0919,,
1652,0.0915,,
1653,0.0911,,
1654,0.0907,,
1655,0.0904,,
1656,0.0900,,
1657,0.0896,,
1658,0.0892,,
1659,0.0889,,
1660,0.0885,,
1661,0.0882,,
1662,0.0878,,
1663,0.0874,,
1664,0.0871,,
1665,0.0867,,
1666,0.0864,,
1667,0.0861,,
1668,0.0857,,
1669,0.0854,,
1670,0.0850,,
1671,0.0847,,
1672,0.0844,,
1673,0.0841,,
1674,0.0837,,
1675,0.0834,,
1676,0.0831,,
1677,0.0828,,
1678,0.0825,,
1679,0.0822,,
1680,0.0818,,
1681,0.0815,,
1682,0.0812,,
1683,0.0809,,
1684,0.0806,,
1685,0.0803,,
1686,0.0800,,
1687,0.0798,,
1688,0.0795,,
1689,0.0792,,
1690,0.0789,,
1691,0.0786,,
1692,0.0783,,
1693,0.0780,,
1694,0.0778,,
1695,0.0775,,
1696,0.0772,,
1697,0.0769,,
1698,0.0767,,
1699,0.0764,,
1700,0.0761,,
1701,0.0759,,
1702,0.0756,,
1703,0.0754,,
1704,0.0751,,
1705,0.0748,,
1706,0.0746,,
1707,0.0743,,
1708,0.0741,,
1709,0.0738,,
1710,0.0736,,
1711,0.0733,,
1712,0.0731,,
1713,0.0728,,
1714,0.0726,,
1715,0.0724,,
1716,0.0721,,
1717,0.0719,,
1718,0.0716,,
1719,0.0714,,
1720,0.0712,,
1721,0.0709,,
1722,0.0707,,
1723,0.0705,,
1724,0.0702,,
1725,0.0700,,
1726,0.0698,,
1727,0.0695,,
1728,0.0693,,
1729,0.0691,,
1730,0.0689,,
1731,0.0687,,
1732,0.0684,,
1733,0.0682,,
1734,0.0680,,
1735,0.0678,,
1736,0.0676,,
1737,0.0673,,
1738,0.0671,,
1739,0.0669,,
1740,0.0667,,
1741,0.0665,,
1742,0.0663,,
1743,0.0661,,
1744,0.0658,,
1745,0.0656,,
1746,0.0654,,
1747,0.0652,,
1748,0.0650,,
1749,0.0648,,
1750,0.0646,,
1751,0.0644,,
1752,0.0642,,
1753,0.0640,,
1754,0.0638,,
1755,0.0636,,
1756,0.0634,,
1757,0.0632,,
1758,0.0630,,
1759,0.0628,,
1760,0.0626,,
1761,0.0624,,
1762,0.0622,,
1763,0.0620,,
1764,0.0618,,
1765,0.0616,,
1766,0.0614,,
1767,0.0612,,
1768,0.0610,,
1769,0.0608,,
1770,0.0606,,
1771,0.0604,,
1772,0.0602,,
1773,0.0600,,
1774,0.0598,,
1775,0.0596,,
1776,0.0594,,
1777,0.0592,,
1778,0.0590,,
1779,0.0589,,
1780,0.0587,,
1781,0.0585,,
1782,0.0583,,
1783,0.0581,,
1784,0.0579,,
1785,0.0577,,
1786,0.0575,,
1787,0.0573,,
1788,0.0571,,
1789,0.0569,,
1790,0.0568,,
1791,0.0566,,
1792,0.0564,,
1793,0.0562,,
1794,0.0560,,
1795,0.0558,,
1796,0.0556,,
1797,0.0554,,
1798,0.0552,,
1799,0.0551,,
1800,0.0549,,
1801,0.0547,,
1802,0.0545,,
1803,0.0543,,
1804,0.0541,,
1805,0.0539,,
1806,0.0537,,
1807,0.0536,,
1808,0.0534,,
1809,0.0532,,
1810,0.0530,,
1811,0.0528,,
1812,0.0526,,
1813,0.0524,,
1814,0.0522,,
1815,0.0521,,
1816,0.0519,,
1817,0.0517,,
1818,0.0515,,
1819,0.0513,,
1820,0.0511,,
1821,0.0509,,
1822,0.0507,,
1823,0.0506,,
1824,0.0504,,
1825,0.0502,,
1826,0.0500,,
1827,0.0498,,
1828,0.0496,,
1829,0.0494,,
1830,0.0493,,
1831,0.0491,,
1832,0.0489,,
1833,0.0487,,
1834,0.0485,,
1835,0.0483,,
1836,0.0481,,
1837,0.0479,,
1838,0.0478,,
1839,0.0476,,
1840,0.0474,,
1841,0.0472,,
1842,0.0470,,
1843,0.0468,,
1844,0.0466,,
1845,0.0465,,
1846,0.0463,,
1847,0.0461,,
1848,0.0459,,
1849,0.0457,,
1850,0.0455,,
1851,0.0453,,
1852,0.0451,,
1853,0.0450,,
1854,0.0448,,
1855,0.0446,,
1856,0.0444,,
1857,0.0442,,
1858,0.0440,,
1859,0.0438,,
1860,0.0436,,
1861,0.0435,,
1862,0.0433,,
1863,0.0431,,
1864,0.0429,,
1865,0.0427,,
1866,0.0425,,
1867,0.0423,,
1868,0.0421,,
1869,0.0420,,
1870,0.0418,,
1871,0.0416,,
1872,0.0414,,
1873,0.0412,,
1874,0.0410,,
1875,0.0408,,
1876,0.0406,,
1877,0.0405,,
1878,0.0403,,
1879,0.0401,,
1880,0.0399,,
1881,0.0397,,
1882,0.0395,,
1883,0.0393,,
1884,0.0391,,
1885,0.0390,,
1886,0.0388,,
1887,0.0386,,
1888,0.0384,,
1889,0.0382,,
1890,0.0380,,
1891,0.0378,,
1892,0.0377,,
1893,0.0375,,
1894,0.0373,,
1895,0.0371,,
1896,0.0369,,
1897,0.0367,,
1898,0.0365,,
1899,0.0363,,
1900,0.0362,,
1901,0.0360,,
1902,0.0358,,
1903,0.0356,,
1904,0.0354,,
1905,0.0352,,
1906,0.0350,,
1907,0.0349,,
1908,0.0347,,
1909,0.0345,,
1910,0.0343,,
1911,0.0341,,
1912,0.0339,,
1913,0.0338,,
1914,0.0336,,
1915,0.0334,,
1916,0.0332,,
1917,0.0330,,
1918,0.0328,,
1919,0.0326,,
1920,0.0325,,
1921,0.0323,,
1922,0.0321,,
1923,0.0319,,
1924,0.0317,,
1925,0.0315,,
1926,0.0314,,
1927,0.0312,,
1928,0.0310,,
1929,0.0308,,
1930,0.0306,,
1931,0.0305,,
1932,0.0303,,
1933,0.0301,,
1934,0.0299,,
1935,0.0297,,
1936,0.0296,,
1937,0.0294,,
1938,0.0292,,
1939,0.0290,,
1940,0.0288,,
1941,0.0287,,
1942,0.0285,,
1943,0.0283,,
1944,0.0281,,
1945,0.0279,,
1946,0.0278,,
1947,0.0276,,
1948,0.0274,,
1949,0.0272,,
1950,0.0271,,
1951,0.0269,,
1952,0.0267,,
1953,0.0265,,
1954,0.0264,,
1955,0.0262,,
1956,0.0260,,
1957,0.0258,,
1958,0.0257,,
1959,0.0255,,
1960,0.0253,,
1961,0.0251,,
1962,0.0250,,
1963,0.0248,,
1964,0.0246,,
1965,0.0244,,
1966,0.0243,,
1967,0.0241,,
1968,0.0239,,
1969,0.0238,,
1970,0.0236,,
1971,0.0234,,
1972,0.0233,,
1973,0.0231,,
1974,0.0229,,
1975,0.0228,,
1976,0.0226,,
1977,0.0224,,
1978,0.0223,,
1979,0.0221,,
1980,0.0219,,
1981,0.0218,,
1982,0.0216,,
1983,0.0214,,
1984,0.0213,,
1985,0.0211,,
1986,0.0210,,
1987,0.0208,,
1988,0.0206,,
1989,0.0205,,
1990,0.0203,,
1991,0.0202,,
1992,0.0200,,
1993,0.0198,,
1994,0.0197,,
1995,0.0195,,
1996,0.0194,,
1997,0.0192,,
1998,0.0191,,
1999,0.0189,,

[Histogram Data]
Binwidth,4
Diffusion Coefficient (E4 nm²/s), Concentration (E6 particles / ml),,
2.0,0.0000,,
6.0,0.0000,,
10.0,0.0000,,
14.0,0.0000,,
18.0,0.0000,,
22.0,0.0000,,
26.0,0.0000,,
30.0,0.0000,,
34.0,0.0000,,
38.0,0.0000,,
42.0,0.0000,,
46.0,0.0000,,
50.0,0.0000,,
54.0,0.0000,,
58.0,0.0000,,
62.0,0.0000,,
66.0,0.0000,,
70.0,0.0000,,
74.0,0.0000,,
78.0,0.0000,,
82.0,0.0000,,
86.0,0.0000,,
90.0,0.0000,,
94.0,0.0000,,
98.0,0.0000,,
102.0,0.0000,,
106.0,0.0000,,
110.0,0.5599,,
114.0,0.0000,,
118.0,0.0000,,
122.0,0.0000,,
126.0,0.0000,,
130.0,0.4666,,
134.0,1.7730,,
138.0,0.5132,,
142.0,2.5195,,
146.0,2.8927,,
150.0,2.7527,,
154.0,0.9798,,
158.0,2.0529,,
162.0,3.7792,,
166.0,4.4324,,
170.0,6.1587,,
174.0,5.6921,,
178.0,5.8321,,
182.0,7.5117,,
186.0,7.7450,,
190.0,4.4324,,
194.0,7.9316,,
198.0,6.6253,,
202.0,4.8523,,
206.0,9.8446,,
210.0,6.4386,,
214.0,12.9239,,
218.0,9.2847,,
222.0,16.0966,,
226.0,10.5911,,
230.0,12.4573,,
234.0,13.0639,,
238.0,12.6440,,
242.0,11.8975,,
246.0,8.9581,,
250.0,14.5102,,
254.0,10.4978,,
258.0,14.9301,,
262.0,15.1168,,
266.0,17.3096,,
270.0,16.5165,,
274.0,13.1105,,
278.0,19.3625,,
282.0,14.3236,,
286.0,14.2770,,
290.0,16.1432,,
294.0,18.8027,,
298.0,16.0499,,
302.0,19.5958,,
306.0,11.5709,,
310.0,14.4169,,
314.0,16.8897,,
318.0,11.2909,,
322.0,10.5444,,
326.0,13.1572,,
330.0,12.7839,,
334.0,17.1230,,
338.0,11.1976,,
342.0,14.0437,,
346.0,17.0764,,
350.0,15.8166,,
354.0,10.6377,,
358.0,15.4434,,
362.0,17.7762,,
366.0,15.7700,,
370.0,14.4169,,
374.0,12.2707,,
378.0,12.1307,,
382.0,22.4419,,
386.0,16.2365,,
390.0,15.9566,,
394.0,15.2567,,
398.0,17.7296,,
402.0,16.7031,,
406.0,12.4573,,
410.0,13.6704,,
414.0,12.3640,,
418.0,11.0576,,
422.0,7.6984,,
426.0,11.5709,,
430.0,9.7046,,
434.0,11.2443,,
438.0,11.8041,,
442.0,22.2086,,
446.0,12.8773,,
450.0,12.3640,,
454.0,9.9379,,
458.0,9.3780,,
462.0,11.8508,,
466.0,8.2582,,
470.0,9.0514,,
474.0,15.3967,,
478.0,9.7513,,
482.0,16.3299,,
486.0,9.5646,,
490.0,11.1510,,
494.0,8.7248,,
498.0,10.9643,,
502.0,12.3174,,
506.0,9.3313,,
510.0,10.8244,,
514.0,10.2178,,
518.0,14.4169,,
522.0,10.2178,,
526.0,14.9301,,
530.0,14.1370,,
534.0,12.6906,,
538.0,13.7637,,
542.0,11.2443,,
546.0,15.1168,,
550.0,15.3034,,
554.0,10.8244,,
558.0,11.4776,,
562.0,9.9845,,
566.0,11.7575,,
570.0,10.4044,,
574.0,9.2847,,
578.0,6.3920,,
582.0,13.1105,,
586.0,11.1976,,
590.0,8.9581,,
594.0,6.8585,,
598.0,8.5848,,
602.0,5.1789,,
606.0,9.5180,,
610.0,8.0250,,
614.0,9.2847,,
618.0,6.0187,,
622.0,6.0187,,
626.0,5.7854,,
630.0,6.7652,,
634.0,5.6455,,
638.0,12.9706,,
642.0,7.6984,,
646.0,7.5584,,
650.0,8.6315,,
654.0,5.2256,,
658.0,11.8975,,
662.0,5.7388,,
666.0,9.0047,,
670.0,11.6642,,
674.0,14.1370,,
678.0,10.0779,,
682.0,6.4853,,
686.0,5.6455,,
690.0,7.9316,,
694.0,8.1649,,
698.0,7.9783,,
702.0,8.8648,,
706.0,8.4915,,
710.0,11.4309,,
714.0,4.6190,,
718.0,6.5319,,
722.0,11.4309,,
726.0,8.7248,,
730.0,6.8585,,
734.0,10.4044,,
738.0,8.6781,,
742.0,7.7917,,
746.0,4.8990,,
750.0,6.1120,,
754.0,6.9985,,
758.0,8.0250,,
762.0,6.9985,,
766.0,7.5117,,
770.0,3.9658,,
774.0,10.2178,,
778.0,7.5117,,
782.0,7.8383,,
786.0,5.2722,,
790.0,6.2053,,
794.0,6.2987,,
798.0,7.5584,,
802.0,8.2582,,
806.0,4.7590,,
810.0,4.8990,,
814.0,6.4386,,
818.0,5.3655,,
822.0,8.7248,,
826.0,7.6984,,
830.0,9.0514,,
834.0,9.1447,,
838.0,5.2256,,
842.0,3.7325,,
846.0,7.7917,,
850.0,3.3593,,
854.0,7.8850,,
858.0,4.8990,,
862.0,8.3049,,
866.0,3.6859,,
870.0,6.9985,,
874.0,5.6455,,
878.0,7.2318,,
882.0,4.4324,,
886.0,6.9985,,
890.0,5.6921,,
894.0,6.7186,,
898.0,3.3126,,
902.0,3.9658,,
906.0,3.2660,,
910.0,4.6657,,
914.0,2.5195,,
918.0,4.1991,,
922.0,3.4059,,
926.0,3.8725,,
930.0,6.2053,,
934.0,7.6050,,
938.0,3.6859,,
942.0,2.1929,,
946.0,2.4261,,
950.0,5.0389,,
954.0,3.9192,,
958.0,4.0125,,
962.0,4.6190,,
966.0,4.2924,,
970.0,5.6921,,
974.0,5.4588,,
978.0,7.1851,,
982.0,3.9658,,
986.0,4.7590,,
990.0,2.4728,,
994.0,3.7325,,
998.0,3.2193,,
1002.0,2.2395,,
1006.0,7.5117,,
1010.0,2.4261,,
1014.0,2.3328,,
1018.0,3.3126,,
1022.0,4.9456,,
1026.0,2.7994,,
1030.0,3.3593,,
1034.0,4.9456,,
1038.0,4.4324,,
1042.0,1.8196,,
1046.0,1.7263,,
1050.0,3.8259,,
1054.0,4.7123,,
1058.0,4.1524,,
1062.0,1.4930,,
1066.0,4.1524,,
1070.0,2.8461,,
1074.0,3.0327,,
1078.0,4.5724,,
1082.0,3.4059,,
1086.0,1.4930,,
1090.0,5.0389,,
1094.0,2.1929,,
1098.0,2.7994,,
1102.0,2.1462,,
1106.0,0.9798,,
1110.0,2.4261,,
1114.0,2.5195,,
1118.0,1.9596,,
1122.0,1.6796,,
1126.0,1.3064,,
1130.0,2.1929,,
1134.0,2.5661,,
1138.0,2.7061,,
1142.0,3.2660,,
1146.0,2.1462,,
1150.0,1.6796,,
1154.0,2.1462,,
1158.0,2.0529,,
1162.0,4.2458,,
1166.0,1.2597,,
1170.0,2.1929,,
1174.0,2.0996,,
1178.0,0.9798,,
1182.0,1.7263,,
1186.0,1.4930,,
1190.0,3.0327,,
1194.0,0.7932,,
1198.0,2.1929,,
1202.0,1.3530,,
1206.0,0.7465,,
1210.0,1.4464,,
1214.0,2.6128,,
1218.0,5.6921,,
1222.0,2.6128,,
1226.0,3.6392,,
1230.0,2.5195,,
1234.0,2.4728,,
1238.0,1.2597,,
1242.0,2.9394,,
1246.0,1.3530,,
1250.0,1.9129,,
1254.0,2.1929,,
1258.0,1.8196,,
1262.0,0.5132,,
1266.0,0.9331,,
1270.0,1.1198,,
1274.0,0.9798,,
1278.0,1.9596,,
1282.0,4.4324,,
1286.0,1.7263,,
1290.0,1.5863,,
1294.0,2.6128,,
1298.0,3.2193,,
1302.0,1.7730,,
1306.0,0.5599,,
1310.0,0.8865,,
1314.0,1.9596,,
1318.0,2.1462,,
1322.0,2.0996,,
1326.0,0.9798,,
1330.0,3.1260,,
1334.0,1.0731,,
1338.0,1.3997,,
1342.0,1.6796,,
1346.0,0.5132,,
1350.0,1.3997,,
1354.0,0.4199,,
1358.0,2.4728,,
1362.0,1.3530,,
1366.0,0.2333,,
1370.0,1.0264,,
1374.0,2.2862,,
1378.0,1.4464,,
1382.0,1.6330,,
1386.0,1.5863,,
1390.0,2.3795,,
1394.0,0.5132,,
1398.0,1.6796,,
1402.0,0.7465,,
1406.0,1.5397,,
1410.0,1.7730,,
1414.0,1.0731,,
1418.0,1.3064,,
1422.0,1.0264,,
1426.0,2.1929,,
1430.0,1.5863,,
1434.0,1.6796,,
1438.0,0.4666,,
1442.0,1.5397,,
1446.0,0.5132,,
1450.0,0.7465,,
1454.0,0.8865,,
1458.0,1.0731,,
1462.0,1.3064,,
1466.0,0.5132,,
1470.0,0.2799,,
1474.0,1.3064,,
1478.0,1.4930,,
1482.0,1.5397,,
1486.0,0.6999,,
1490.0,1.3997,,
1494.0,0.6999,,
1498.0,0.8398,,
1502.0,0.0000,,
1506.0,0.6999,,
1510.0,0.8398,,
1514.0,0.5132,,
1518.0,0.6065,,
1522.0,0.2333,,
1526.0,0.2333,,
1530.0,0.8398,,
1534.0,0.7932,,
1538.0,0.0000,,
1542.0,1.2131,,
1546.0,0.6065,,
1550.0,0.3733,,
1554.0,0.4666,,
1558.0,0.4666,,
1562.0,0.5599,,
1566.0,0.7932,,
1570.0,0.2333,,
1574.0,0.7932,,
1578.0,0.0000,,
1582.0,0.4666,,
1586.0,0.5132,,
1590.0,0.4666,,
1594.0,0.0000,,
1598.0,0.2799,,
1602.0,0.0000,,
1606.0,0.0000,,
1610.0,0.0000,,
1614.0,0.5599,,
1618.0,0.2333,,
1622.0,0.9798,,
1626.0,0.6999,,
1630.0,0.2799,,
1634.0,0.4666,,
1638.0,0.2333,,
1642.0,0.0000,,
1646.0,0.0000,,
1650.0,0.2333,,
1654.0,0.0000,,
1658.0,0.7465,,
1662.0,0.4666,,
1666.0,0.4666,,
1670.0,0.2333,,
1674.0,0.0000,,
1678.0,0.0000,,
1682.0,0.0000,,
1686.0,0.2799,,
1690.0,0.0000,,
1694.0,1.5863,,
1698.0,0.2333,,
1702.0,0.0000,,
1706.0,0.0000,,
1710.0,0.6999,,
1714.0,0.8398,,
1718.0,0.3266,,
1722.0,0.2333,,
1726.0,0.0000,,
1730.0,0.9331,,
1734.0,0.0000,,
1738.0,0.3266,,
1742.0,0.2333,,
1746.0,0.5599,,
1750.0,0.0000,,
1754.0,0.0000,,
1758.0,0.0000,,
1762.0,0.2333,,
1766.0,0.6065,,
1770.0,0.2333,,
1774.0,0.0000,,
1778.0,0.7465,,
1782.0,0.2333,,
1786.0,0.0000,,
1790.0,0.3266,,
1794.0,0.2333,,
1798.0,0.0000,,
1802.0,0.0000,,
1806.0,0.0000,,
1810.0,0.2333,,
1814.0,0.2799,,
1818.0,0.2799,,
1822.0,0.3266,,
1826.0,0.2799,,
1830.0,0.0000,,
1834.0,0.0000,,
1838.0,1.0264,,
1842.0,0.0000,,
1846.0,0.0000,,
1850.0,0.2333,,
1854.0,0.0000,,
1858.0,0.2333,,
1862.0,0.2333,,
1866.0,0.5132,,
1870.0,0.0000,,
1874.0,0.0000,,
1878.0,0.0000,,
1882.0,0.0000,,
1886.0,0.0000,,
1890.0,0.5132,,
1894.0,0.0000,,
1898.0,0.0000,,
1902.0,0.5132,,
1906.0,0.5132,,
1910.0,0.0000,,
1914.0,0.5132,,
1918.0,0.5599,,
1922.0,0.3266,,
1926.0,0.6999,,
1930.0,0.0000,,
1934.0,0.0000,,
1938.0,0.0000,,
1942.0,0.0000,,
1946.0,0.0000,,
1950.0,0.5132,,
1954.0,0.0000,,
1958.0,0.0000,,
1962.0,0.0000,,
1966.0,0.0000,,
1970.0,0.0000,,
1974.0,0.0000,,
1978.0,0.0000,,
1982.0,0.0000,,
1986.0,0.0000,,
1990.0,0.0000,,
1994.0,0.0000,,
1998.0,0.2799,,

[Percentile Undersize]
Percentile,Diffusion Coefficient (E4 nm²/s),
0,80,
1,164,
2,181,
3,195,
4,206,
5,215,
6,224,
7,231,
8,239,
9,246,
10,253,
11,259,
12,266,
13,272,
14,278,
15,284,
16,290,
17,296,
18,302,
19,308,
20,314,
21,320,
22,327,
23,333,
24,339,
25,346,
26,352,
27,358,
28,364,
29,371,
30,377,
31,383,
32,389,
33,396,
34,402,
35,409,
36,416,
37,423,
38,430,
39,437,
40,445,
41,452,
42,460,
43,468,
44,476,
45,484,
46,492,
47,500,
48,507,
49,515,
50,523,
51,531,
52,539,
53,547,
54,555,
55,564,
56,573,
57,582,
58,592,
59,602,
60,612,
61,623,
62,634,
63,645,
64,656,
65,667,
66,678,
67,689,
68,700,
69,712,
70,723,
71,735,
72,747,
73,760,
74,772,
75,785,
76,799,
77,813,
78,827,
79,842,
80,858,
81,874,
82,891,
83,909,
84,928,
85,948,
86,970,
87,993,
88,1017,
89,1044,
90,1073,
91,1105,
92,1141,
93,1181,
94,1225,
95,1273,
96,1326,
97,1390,
98,1473,
99,1617,
100,1999,

