[Software Info]
Build,NTA 2.3 build 0033

[Sample Information]
Operator,""
Sample Description,"coffee"
Diluent,"aqua dest."
Concentration,"1:19"
Pre-treatmeant,""
Comments,""

[Results Summary]
Total Frames,1800
Processed Frames,1800
Valid Tracks,4165
Overall Drift (nm/s),1087.22
X-Drift (nm/s),100.45
Y-Drift (nm/s),1082.57
Calibration (nm/pixel),166

Size Data - Concentration Weighted,
Mode (nm),181.00
Mean (nm),157.66
Standard Deviation (nm),54.19
Size data - Model Fit,
Mean (nm),0.00
Standard Deviation (nm),0.00

User Line 1,37
User Line 2,205
Average # centres/frame,83.85
Average # particles/frame,72.49
Equivalent particle concentration (E8 particles/ml),10.89
Selected average # particles/frame,59.72
Selected equivalent particle concentration (E8 particles/ml),8.97

[Settings],
Background Extract,On
Brightness,0
Gain,1.00
Blur Size,Auto,
Detection Threshold Type,Multi,
Detection Threshold,26
Min Track Length,Auto
Min Expected Size (nm),Auto

[Measurement Conditions]
Camera Type,CCD
Camera Shutter (ms),8.00
Camera Gain,500
Frame rate (fps),30.00
Temperature (°C),23.90
Viscosity (cP),0.911

[Warnings]
Low Completed Tracks,No
High Noise,0 frames
Auto max jump,Successful
Drift off,No
Settings Changed Whilst Processing,No
Vibration detected,Vibration detected <~10% error
Additional Errors,None

[Graph Data]
Particle Size (nm),Concentration (E6 particles / ml),,
0,0.0000,,
1,0.0000,,
2,0.0000,,
3,0.0000,,
4,0.0000,,
5,0.0000,,
6,0.0000,,
7,0.0000,,
8,0.0000,,
9,0.0000,,
10,0.0000,,
11,0.0000,,
12,0.0000,,
13,0.0000,,
14,0.0000,,
15,0.0000,,
16,0.0000,,
17,0.0000,,
18,0.0000,,
19,0.0000,,
20,0.0000,,
21,0.0003,,
22,0.0014,,
23,0.0056,,
24,0.0173,,
25,0.0414,,
26,0.0791,,
27,0.1256,,
28,0.1746,,
29,0.2262,,
30,0.2874,,
31,0.3655,,
32,0.4625,,
33,0.5758,,
34,0.6986,,
35,0.8218,,
36,0.9356,,
37,1.0342,,
38,1.1194,,
39,1.1987,,
40,1.2798,,
41,1.3658,,
42,1.4548,,
43,1.5449,,
44,1.6371,,
45,1.7353,,
46,1.8438,,
47,1.9639,,
48,2.0918,,
49,2.2214,,
50,2.3458,,
51,2.4597,,
52,2.5606,,
53,2.6472,,
54,2.7189,,
55,2.7754,,
56,2.8153,,
57,2.8385,,
58,2.8453,,
59,2.8385,,
60,2.8228,,
61,2.8043,,
62,2.7893,,
63,2.7833,,
64,2.7897,,
65,2.8100,,
66,2.8432,,
67,2.8863,,
68,2.9355,,
69,2.9870,,
70,3.0369,,
71,3.0826,,
72,3.1217,,
73,3.1533,,
74,3.1773,,
75,3.1942,,
76,3.2056,,
77,3.2133,,
78,3.2198,,
79,3.2275,,
80,3.2390,,
81,3.2560,,
82,3.2796,,
83,3.3099,,
84,3.3465,,
85,3.3885,,
86,3.4342,,
87,3.4823,,
88,3.5317,,
89,3.5814,,
90,3.6312,,
91,3.6808,,
92,3.7303,,
93,3.7804,,
94,3.8312,,
95,3.8834,,
96,3.9373,,
97,3.9932,,
98,4.0509,,
99,4.1105,,
100,4.1711,,
101,4.2319,,
102,4.2918,,
103,4.3494,,
104,4.4036,,
105,4.4526,,
106,4.4952,,
107,4.5308,,
108,4.5585,,
109,4.5783,,
110,4.5902,,
111,4.5948,,
112,4.5930,,
113,4.5863,,
114,4.5759,,
115,4.5635,,
116,4.5506,,
117,4.5391,,
118,4.5307,,
119,4.5271,,
120,4.5295,,
121,4.5393,,
122,4.5576,,
123,4.5853,,
124,4.6232,,
125,4.6714,,
126,4.7302,,
127,4.7992,,
128,4.8784,,
129,4.9669,,
130,5.0638,,
131,5.1684,,
132,5.2796,,
133,5.3961,,
134,5.5167,,
135,5.6404,,
136,5.7657,,
137,5.8918,,
138,6.0174,,
139,6.1416,,
140,6.2637,,
141,6.3828,,
142,6.4984,,
143,6.6100,,
144,6.7172,,
145,6.8201,,
146,6.9185,,
147,7.0123,,
148,7.1019,,
149,7.1874,,
150,7.2693,,
151,7.3481,,
152,7.4241,,
153,7.4980,,
154,7.5703,,
155,7.6416,,
156,7.7123,,
157,7.7831,,
158,7.8542,,
159,7.9262,,
160,7.9992,,
161,8.0736,,
162,8.1493,,
163,8.2263,,
164,8.3046,,
165,8.3839,,
166,8.4640,,
167,8.5444,,
168,8.6244,,
169,8.7037,,
170,8.7815,,
171,8.8572,,
172,8.9299,,
173,8.9987,,
174,9.0629,,
175,9.1215,,
176,9.1739,,
177,9.2189,,
178,9.2557,,
179,9.2835,,
180,9.3017,,
181,9.3093,,
182,9.3056,,
183,9.2901,,
184,9.2623,,
185,9.2218,,
186,9.1681,,
187,9.1013,,
188,9.0210,,
189,8.9275,,
190,8.8210,,
191,8.7017,,
192,8.5702,,
193,8.4270,,
194,8.2728,,
195,8.1086,,
196,7.9351,,
197,7.7535,,
198,7.5648,,
199,7.3703,,
200,7.1710,,
201,6.9682,,
202,6.7630,,
203,6.5567,,
204,6.3504,,
205,6.1451,,
206,5.9418,,
207,5.7414,,
208,5.5448,,
209,5.3528,,
210,5.1658,,
211,4.9843,,
212,4.8088,,
213,4.6395,,
214,4.4768,,
215,4.3204,,
216,4.1705,,
217,4.0271,,
218,3.8899,,
219,3.7587,,
220,3.6333,,
221,3.5133,,
222,3.3985,,
223,3.2887,,
224,3.1833,,
225,3.0820,,
226,2.9845,,
227,2.8905,,
228,2.7999,,
229,2.7121,,
230,2.6271,,
231,2.5446,,
232,2.4646,,
233,2.3869,,
234,2.3112,,
235,2.2376,,
236,2.1660,,
237,2.0965,,
238,2.0288,,
239,1.9631,,
240,1.8993,,
241,1.8373,,
242,1.7775,,
243,1.7195,,
244,1.6634,,
245,1.6093,,
246,1.5570,,
247,1.5067,,
248,1.4581,,
249,1.4113,,
250,1.3662,,
251,1.3227,,
252,1.2810,,
253,1.2406,,
254,1.2018,,
255,1.1642,,
256,1.1280,,
257,1.0930,,
258,1.0590,,
259,1.0260,,
260,0.9939,,
261,0.9628,,
262,0.9325,,
263,0.9029,,
264,0.8740,,
265,0.8458,,
266,0.8184,,
267,0.7915,,
268,0.7652,,
269,0.7395,,
270,0.7144,,
271,0.6900,,
272,0.6661,,
273,0.6429,,
274,0.6203,,
275,0.5984,,
276,0.5771,,
277,0.5564,,
278,0.5365,,
279,0.5173,,
280,0.4988,,
281,0.4809,,
282,0.4638,,
283,0.4474,,
284,0.4317,,
285,0.4167,,
286,0.4024,,
287,0.3887,,
288,0.3757,,
289,0.3633,,
290,0.3515,,
291,0.3404,,
292,0.3297,,
293,0.3196,,
294,0.3099,,
295,0.3008,,
296,0.2920,,
297,0.2836,,
298,0.2756,,
299,0.2680,,
300,0.2606,,
301,0.2536,,
302,0.2468,,
303,0.2402,,
304,0.2339,,
305,0.2278,,
306,0.2218,,
307,0.2161,,
308,0.2104,,
309,0.2050,,
310,0.1996,,
311,0.1944,,
312,0.1893,,
313,0.1844,,
314,0.1795,,
315,0.1747,,
316,0.1701,,
317,0.1655,,
318,0.1611,,
319,0.1567,,
320,0.1525,,
321,0.1483,,
322,0.1443,,
323,0.1404,,
324,0.1365,,
325,0.1328,,
326,0.1291,,
327,0.1256,,
328,0.1222,,
329,0.1189,,
330,0.1156,,
331,0.1125,,
332,0.1094,,
333,0.1065,,
334,0.1036,,
335,0.1008,,
336,0.0981,,
337,0.0955,,
338,0.0930,,
339,0.0905,,
340,0.0881,,
341,0.0858,,
342,0.0835,,
343,0.0813,,
344,0.0792,,
345,0.0771,,
346,0.0750,,
347,0.0730,,
348,0.0711,,
349,0.0692,,
350,0.0673,,
351,0.0654,,
352,0.0636,,
353,0.0618,,
354,0.0601,,
355,0.0584,,
356,0.0567,,
357,0.0550,,
358,0.0533,,
359,0.0517,,
360,0.0501,,
361,0.0485,,
362,0.0470,,
363,0.0455,,
364,0.0439,,
365,0.0425,,
366,0.0410,,
367,0.0396,,
368,0.0382,,
369,0.0368,,
370,0.0354,,
371,0.0341,,
372,0.0328,,
373,0.0315,,
374,0.0302,,
375,0.0290,,
376,0.0278,,
377,0.0266,,
378,0.0255,,
379,0.0244,,
380,0.0233,,
381,0.0222,,
382,0.0212,,
383,0.0202,,
384,0.0193,,
385,0.0183,,
386,0.0174,,
387,0.0166,,
388,0.0157,,
389,0.0149,,
390,0.0142,,
391,0.0134,,
392,0.0127,,
393,0.0120,,
394,0.0113,,
395,0.0107,,
396,0.0101,,
397,0.0095,,
398,0.0089,,
399,0.0084,,
400,0.0079,,
401,0.0074,,
402,0.0069,,
403,0.0065,,
404,0.0061,,
405,0.0057,,
406,0.0053,,
407,0.0050,,
408,0.0046,,
409,0.0043,,
410,0.0040,,
411,0.0037,,
412,0.0034,,
413,0.0032,,
414,0.0030,,
415,0.0027,,
416,0.0025,,
417,0.0023,,
418,0.0022,,
419,0.0020,,
420,0.0018,,
421,0.0017,,
422,0.0015,,
423,0.0014,,
424,0.0013,,
425,0.0012,,
426,0.0011,,
427,0.0010,,
428,0.0009,,
429,0.0008,,
430,0.0007,,
431,0.0007,,
432,0.0006,,
433,0.0006,,
434,0.0005,,
435,0.0005,,
436,0.0004,,
437,0.0004,,
438,0.0003,,
439,0.0003,,
440,0.0003,,
441,0.0002,,
442,0.0002,,
443,0.0002,,
444,0.0002,,
445,0.0002,,
446,0.0001,,
447,0.0001,,
448,0.0001,,
449,0.0001,,
450,0.0001,,
451,0.0001,,
452,0.0001,,
453,0.0001,,
454,0.0001,,
455,0.0001,,
456,0.0001,,
457,0.0001,,
458,0.0001,,
459,0.0001,,
460,0.0001,,
461,0.0001,,
462,0.0001,,
463,0.0001,,
464,0.0001,,
465,0.0001,,
466,0.0001,,
467,0.0001,,
468,0.0001,,
469,0.0001,,
470,0.0001,,
471,0.0001,,
472,0.0001,,
473,0.0001,,
474,0.0002,,
475,0.0002,,
476,0.0002,,
477,0.0002,,
478,0.0002,,
479,0.0002,,
480,0.0002,,
481,0.0002,,
482,0.0002,,
483,0.0003,,
484,0.0003,,
485,0.0003,,
486,0.0003,,
487,0.0003,,
488,0.0003,,
489,0.0004,,
490,0.0004,,
491,0.0004,,
492,0.0004,,
493,0.0004,,
494,0.0005,,
495,0.0005,,
496,0.0005,,
497,0.0005,,
498,0.0005,,
499,0.0006,,
500,0.0006,,
501,0.0006,,
502,0.0006,,
503,0.0007,,
504,0.0007,,
505,0.0007,,
506,0.0008,,
507,0.0008,,
508,0.0008,,
509,0.0008,,
510,0.0009,,
511,0.0009,,
512,0.0009,,
513,0.0010,,
514,0.0010,,
515,0.0010,,
516,0.0011,,
517,0.0011,,
518,0.0011,,
519,0.0012,,
520,0.0012,,
521,0.0012,,
522,0.0013,,
523,0.0013,,
524,0.0013,,
525,0.0014,,
526,0.0014,,
527,0.0014,,
528,0.0015,,
529,0.0015,,
530,0.0015,,
531,0.0016,,
532,0.0016,,
533,0.0016,,
534,0.0017,,
535,0.0017,,
536,0.0017,,
537,0.0017,,
538,0.0018,,
539,0.0018,,
540,0.0018,,
541,0.0018,,
542,0.0019,,
543,0.0019,,
544,0.0019,,
545,0.0019,,
546,0.0019,,
547,0.0020,,
548,0.0020,,
549,0.0020,,
550,0.0020,,
551,0.0020,,
552,0.0020,,
553,0.0020,,
554,0.0020,,
555,0.0021,,
556,0.0021,,
557,0.0021,,
558,0.0021,,
559,0.0021,,
560,0.0021,,
561,0.0021,,
562,0.0021,,
563,0.0021,,
564,0.0020,,
565,0.0020,,
566,0.0020,,
567,0.0020,,
568,0.0020,,
569,0.0020,,
570,0.0020,,
571,0.0020,,
572,0.0019,,
573,0.0019,,
574,0.0019,,
575,0.0019,,
576,0.0019,,
577,0.0018,,
578,0.0018,,
579,0.0018,,
580,0.0018,,
581,0.0017,,
582,0.0017,,
583,0.0017,,
584,0.0017,,
585,0.0016,,
586,0.0016,,
587,0.0016,,
588,0.0015,,
589,0.0015,,
590,0.0015,,
591,0.0014,,
592,0.0014,,
593,0.0014,,
594,0.0013,,
595,0.0013,,
596,0.0013,,
597,0.0012,,
598,0.0012,,
599,0.0012,,
600,0.0011,,
601,0.0011,,
602,0.0011,,
603,0.0010,,
604,0.0010,,
605,0.0010,,
606,0.0009,,
607,0.0009,,
608,0.0009,,
609,0.0008,,
610,0.0008,,
611,0.0008,,
612,0.0008,,
613,0.0007,,
614,0.0007,,
615,0.0007,,
616,0.0006,,
617,0.0006,,
618,0.0006,,
619,0.0006,,
620,0.0005,,
621,0.0005,,
622,0.0005,,
623,0.0005,,
624,0.0005,,
625,0.0004,,
626,0.0004,,
627,0.0004,,
628,0.0004,,
629,0.0004,,
630,0.0003,,
631,0.0003,,
632,0.0003,,
633,0.0003,,
634,0.0003,,
635,0.0003,,
636,0.0002,,
637,0.0002,,
638,0.0002,,
639,0.0002,,
640,0.0002,,
641,0.0002,,
642,0.0002,,
643,0.0002,,
644,0.0002,,
645,0.0001,,
646,0.0001,,
647,0.0001,,
648,0.0001,,
649,0.0001,,
650,0.0001,,
651,0.0001,,
652,0.0001,,
653,0.0001,,
654,0.0001,,
655,0.0001,,
656,0.0001,,
657,0.0001,,
658,0.0001,,
659,0.0001,,
660,0.0001,,
661,0.0000,,
662,0.0000,,
663,0.0000,,
664,0.0000,,
665,0.0000,,
666,0.0000,,
667,0.0000,,
668,0.0000,,
669,0.0000,,
670,0.0000,,
671,0.0000,,
672,0.0000,,
673,0.0000,,
674,0.0000,,
675,0.0000,,
676,0.0000,,
677,0.0000,,
678,0.0000,,
679,0.0000,,
680,0.0000,,
681,0.0000,,
682,0.0000,,
683,0.0000,,
684,0.0000,,
685,0.0000,,
686,0.0000,,
687,0.0000,,
688,0.0000,,
689,0.0000,,
690,0.0000,,
691,0.0000,,
692,0.0000,,
693,0.0000,,
694,0.0000,,
695,0.0000,,
696,0.0000,,
697,0.0000,,
698,0.0000,,
699,0.0000,,
700,0.0000,,
701,0.0000,,
702,0.0000,,
703,0.0000,,
704,0.0000,,
705,0.0000,,
706,0.0000,,
707,0.0000,,
708,0.0000,,
709,0.0000,,
710,0.0000,,
711,0.0000,,
712,0.0000,,
713,0.0000,,
714,0.0000,,
715,0.0000,,
716,0.0000,,
717,0.0000,,
718,0.0000,,
719,0.0000,,
720,0.0000,,
721,0.0000,,
722,0.0000,,
723,0.0000,,
724,0.0000,,
725,0.0000,,
726,0.0000,,
727,0.0000,,
728,0.0000,,
729,0.0000,,
730,0.0000,,
731,0.0000,,
732,0.0000,,
733,0.0000,,
734,0.0000,,
735,0.0000,,
736,0.0000,,
737,0.0000,,
738,0.0000,,
739,0.0000,,
740,0.0000,,
741,0.0000,,
742,0.0000,,
743,0.0000,,
744,0.0000,,
745,0.0000,,
746,0.0000,,
747,0.0000,,
748,0.0000,,
749,0.0000,,
750,0.0000,,
751,0.0000,,
752,0.0000,,
753,0.0000,,
754,0.0000,,
755,0.0000,,
756,0.0000,,
757,0.0000,,
758,0.0000,,
759,0.0000,,
760,0.0000,,
761,0.0000,,
762,0.0000,,
763,0.0000,,
764,0.0000,,
765,0.0000,,
766,0.0000,,
767,0.0000,,
768,0.0000,,
769,0.0000,,
770,0.0000,,
771,0.0000,,
772,0.0000,,
773,0.0000,,
774,0.0000,,
775,0.0000,,
776,0.0000,,
777,0.0000,,
778,0.0000,,
779,0.0000,,
780,0.0000,,
781,0.0000,,
782,0.0000,,
783,0.0000,,
784,0.0000,,
785,0.0000,,
786,0.0000,,
787,0.0000,,
788,0.0000,,
789,0.0000,,
790,0.0000,,
791,0.0000,,
792,0.0000,,
793,0.0000,,
794,0.0000,,
795,0.0000,,
796,0.0000,,
797,0.0000,,
798,0.0000,,
799,0.0000,,
800,0.0000,,
801,0.0000,,
802,0.0000,,
803,0.0000,,
804,0.0000,,
805,0.0000,,
806,0.0000,,
807,0.0000,,
808,0.0000,,
809,0.0000,,
810,0.0000,,
811,0.0000,,
812,0.0000,,
813,0.0000,,
814,0.0000,,
815,0.0000,,
816,0.0000,,
817,0.0000,,
818,0.0000,,
819,0.0000,,
820,0.0000,,
821,0.0000,,
822,0.0000,,
823,0.0000,,
824,0.0000,,
825,0.0000,,
826,0.0000,,
827,0.0000,,
828,0.0000,,
829,0.0000,,
830,0.0000,,
831,0.0000,,
832,0.0000,,
833,0.0000,,
834,0.0000,,
835,0.0000,,
836,0.0000,,
837,0.0000,,
838,0.0000,,
839,0.0000,,
840,0.0000,,
841,0.0000,,
842,0.0000,,
843,0.0000,,
844,0.0000,,
845,0.0000,,
846,0.0000,,
847,0.0000,,
848,0.0000,,
849,0.0000,,
850,0.0000,,
851,0.0000,,
852,0.0000,,
853,0.0000,,
854,0.0000,,
855,0.0000,,
856,0.0000,,
857,0.0000,,
858,0.0000,,
859,0.0000,,
860,0.0000,,
861,0.0000,,
862,0.0000,,
863,0.0000,,
864,0.0000,,
865,0.0000,,
866,0.0000,,
867,0.0000,,
868,0.0000,,
869,0.0000,,
870,0.0000,,
871,0.0000,,
872,0.0000,,
873,0.0000,,
874,0.0000,,
875,0.0000,,
876,0.0000,,
877,0.0000,,
878,0.0000,,
879,0.0000,,
880,0.0000,,
881,0.0000,,
882,0.0000,,
883,0.0000,,
884,0.0000,,
885,0.0000,,
886,0.0000,,
887,0.0000,,
888,0.0000,,
889,0.0000,,
890,0.0000,,
891,0.0000,,
892,0.0000,,
893,0.0000,,
894,0.0000,,
895,0.0000,,
896,0.0000,,
897,0.0000,,
898,0.0000,,
899,0.0000,,
900,0.0000,,
901,0.0000,,
902,0.0000,,
903,0.0000,,
904,0.0000,,
905,0.0000,,
906,0.0000,,
907,0.0000,,
908,0.0000,,
909,0.0000,,
910,0.0000,,
911,0.0000,,
912,0.0000,,
913,0.0000,,
914,0.0000,,
915,0.0000,,
916,0.0000,,
917,0.0000,,
918,0.0000,,
919,0.0000,,
920,0.0000,,
921,0.0000,,
922,0.0000,,
923,0.0000,,
924,0.0000,,
925,0.0000,,
926,0.0000,,
927,0.0000,,
928,0.0000,,
929,0.0000,,
930,0.0000,,
931,0.0000,,
932,0.0000,,
933,0.0000,,
934,0.0000,,
935,0.0000,,
936,0.0000,,
937,0.0000,,
938,0.0000,,
939,0.0000,,
940,0.0000,,
941,0.0000,,
942,0.0000,,
943,0.0000,,
944,0.0000,,
945,0.0000,,
946,0.0000,,
947,0.0000,,
948,0.0000,,
949,0.0000,,
950,0.0000,,
951,0.0000,,
952,0.0000,,
953,0.0000,,
954,0.0000,,
955,0.0000,,
956,0.0000,,
957,0.0000,,
958,0.0000,,
959,0.0000,,
960,0.0000,,
961,0.0000,,
962,0.0000,,
963,0.0000,,
964,0.0000,,
965,0.0000,,
966,0.0000,,
967,0.0000,,
968,0.0000,,
969,0.0000,,
970,0.0000,,
971,0.0000,,
972,0.0000,,
973,0.0000,,
974,0.0000,,
975,0.0000,,
976,0.0000,,
977,0.0000,,
978,0.0000,,
979,0.0000,,
980,0.0000,,
981,0.0000,,
982,0.0000,,
983,0.0000,,
984,0.0000,,
985,0.0000,,
986,0.0000,,
987,0.0000,,
988,0.0000,,
989,0.0000,,
990,0.0000,,
991,0.0000,,
992,0.0000,,
993,0.0000,,
994,0.0000,,
995,0.0000,,
996,0.0000,,
997,0.0000,,
998,0.0000,,
999,0.0000,,
1000,0.0000,,
1001,0.0000,,
1002,0.0000,,
1003,0.0000,,
1004,0.0000,,
1005,0.0000,,
1006,0.0000,,
1007,0.0000,,
1008,0.0000,,
1009,0.0000,,
1010,0.0000,,
1011,0.0000,,
1012,0.0000,,
1013,0.0000,,
1014,0.0000,,
1015,0.0000,,
1016,0.0000,,
1017,0.0000,,
1018,0.0000,,
1019,0.0000,,
1020,0.0000,,
1021,0.0000,,
1022,0.0000,,
1023,0.0000,,
1024,0.0000,,
1025,0.0000,,
1026,0.0000,,
1027,0.0000,,
1028,0.0000,,
1029,0.0000,,
1030,0.0000,,
1031,0.0000,,
1032,0.0000,,
1033,0.0000,,
1034,0.0000,,
1035,0.0000,,
1036,0.0000,,
1037,0.0000,,
1038,0.0000,,
1039,0.0000,,
1040,0.0000,,
1041,0.0000,,
1042,0.0000,,
1043,0.0000,,
1044,0.0000,,
1045,0.0000,,
1046,0.0000,,
1047,0.0000,,
1048,0.0000,,
1049,0.0000,,
1050,0.0000,,
1051,0.0000,,
1052,0.0000,,
1053,0.0000,,
1054,0.0000,,
1055,0.0000,,
1056,0.0000,,
1057,0.0000,,
1058,0.0000,,
1059,0.0000,,
1060,0.0000,,
1061,0.0000,,
1062,0.0000,,
1063,0.0000,,
1064,0.0000,,
1065,0.0000,,
1066,0.0000,,
1067,0.0000,,
1068,0.0000,,
1069,0.0000,,
1070,0.0000,,
1071,0.0000,,
1072,0.0000,,
1073,0.0000,,
1074,0.0000,,
1075,0.0000,,
1076,0.0000,,
1077,0.0000,,
1078,0.0000,,
1079,0.0000,,
1080,0.0000,,
1081,0.0000,,
1082,0.0000,,
1083,0.0000,,
1084,0.0000,,
1085,0.0000,,
1086,0.0000,,
1087,0.0000,,
1088,0.0000,,
1089,0.0000,,
1090,0.0000,,
1091,0.0000,,
1092,0.0000,,
1093,0.0000,,
1094,0.0000,,
1095,0.0000,,
1096,0.0000,,
1097,0.0000,,
1098,0.0000,,
1099,0.0000,,
1100,0.0000,,
1101,0.0000,,
1102,0.0000,,
1103,0.0000,,
1104,0.0000,,
1105,0.0000,,
1106,0.0000,,
1107,0.0000,,
1108,0.0000,,
1109,0.0000,,
1110,0.0000,,
1111,0.0000,,
1112,0.0000,,
1113,0.0000,,
1114,0.0000,,
1115,0.0000,,
1116,0.0000,,
1117,0.0000,,
1118,0.0000,,
1119,0.0000,,
1120,0.0000,,
1121,0.0000,,
1122,0.0000,,
1123,0.0000,,
1124,0.0000,,
1125,0.0000,,
1126,0.0000,,
1127,0.0000,,
1128,0.0000,,
1129,0.0000,,
1130,0.0000,,
1131,0.0000,,
1132,0.0000,,
1133,0.0000,,
1134,0.0000,,
1135,0.0000,,
1136,0.0000,,
1137,0.0000,,
1138,0.0000,,
1139,0.0000,,
1140,0.0000,,
1141,0.0000,,
1142,0.0000,,
1143,0.0000,,
1144,0.0000,,
1145,0.0000,,
1146,0.0000,,
1147,0.0000,,
1148,0.0000,,
1149,0.0000,,
1150,0.0000,,
1151,0.0000,,
1152,0.0000,,
1153,0.0000,,
1154,0.0000,,
1155,0.0000,,
1156,0.0000,,
1157,0.0000,,
1158,0.0000,,
1159,0.0000,,
1160,0.0000,,
1161,0.0000,,
1162,0.0000,,
1163,0.0000,,
1164,0.0000,,
1165,0.0000,,
1166,0.0000,,
1167,0.0000,,
1168,0.0000,,
1169,0.0000,,
1170,0.0000,,
1171,0.0000,,
1172,0.0000,,
1173,0.0000,,
1174,0.0000,,
1175,0.0000,,
1176,0.0000,,
1177,0.0000,,
1178,0.0000,,
1179,0.0000,,
1180,0.0000,,
1181,0.0000,,
1182,0.0000,,
1183,0.0000,,
1184,0.0000,,
1185,0.0000,,
1186,0.0000,,
1187,0.0000,,
1188,0.0000,,
1189,0.0000,,
1190,0.0000,,
1191,0.0000,,
1192,0.0000,,
1193,0.0000,,
1194,0.0000,,
1195,0.0000,,
1196,0.0000,,
1197,0.0000,,
1198,0.0000,,
1199,0.0000,,
1200,0.0000,,
1201,0.0000,,
1202,0.0000,,
1203,0.0000,,
1204,0.0000,,
1205,0.0000,,
1206,0.0000,,
1207,0.0000,,
1208,0.0000,,
1209,0.0000,,
1210,0.0000,,
1211,0.0000,,
1212,0.0000,,
1213,0.0000,,
1214,0.0000,,
1215,0.0000,,
1216,0.0000,,
1217,0.0000,,
1218,0.0000,,
1219,0.0000,,
1220,0.0000,,
1221,0.0000,,
1222,0.0000,,
1223,0.0000,,
1224,0.0000,,
1225,0.0000,,
1226,0.0000,,
1227,0.0000,,
1228,0.0000,,
1229,0.0000,,
1230,0.0000,,
1231,0.0000,,
1232,0.0000,,
1233,0.0000,,
1234,0.0000,,
1235,0.0000,,
1236,0.0000,,
1237,0.0000,,
1238,0.0000,,
1239,0.0000,,
1240,0.0000,,
1241,0.0000,,
1242,0.0000,,
1243,0.0000,,
1244,0.0000,,
1245,0.0000,,
1246,0.0000,,
1247,0.0000,,
1248,0.0000,,
1249,0.0000,,
1250,0.0000,,
1251,0.0000,,
1252,0.0000,,
1253,0.0000,,
1254,0.0000,,
1255,0.0000,,
1256,0.0000,,
1257,0.0000,,
1258,0.0000,,
1259,0.0000,,
1260,0.0000,,
1261,0.0000,,
1262,0.0000,,
1263,0.0000,,
1264,0.0000,,
1265,0.0000,,
1266,0.0000,,
1267,0.0000,,
1268,0.0000,,
1269,0.0000,,
1270,0.0000,,
1271,0.0000,,
1272,0.0000,,
1273,0.0000,,
1274,0.0000,,
1275,0.0000,,
1276,0.0000,,
1277,0.0000,,
1278,0.0000,,
1279,0.0000,,
1280,0.0000,,
1281,0.0000,,
1282,0.0000,,
1283,0.0000,,
1284,0.0000,,
1285,0.0000,,
1286,0.0000,,
1287,0.0000,,
1288,0.0000,,
1289,0.0000,,
1290,0.0000,,
1291,0.0000,,
1292,0.0000,,
1293,0.0000,,
1294,0.0000,,
1295,0.0000,,
1296,0.0000,,
1297,0.0000,,
1298,0.0000,,
1299,0.0000,,
1300,0.0000,,
1301,0.0000,,
1302,0.0000,,
1303,0.0000,,
1304,0.0000,,
1305,0.0000,,
1306,0.0000,,
1307,0.0000,,
1308,0.0000,,
1309,0.0000,,
1310,0.0000,,
1311,0.0000,,
1312,0.0000,,
1313,0.0000,,
1314,0.0000,,
1315,0.0000,,
1316,0.0000,,
1317,0.0000,,
1318,0.0000,,
1319,0.0000,,
1320,0.0000,,
1321,0.0000,,
1322,0.0000,,
1323,0.0000,,
1324,0.0000,,
1325,0.0000,,
1326,0.0000,,
1327,0.0000,,
1328,0.0000,,
1329,0.0000,,
1330,0.0000,,
1331,0.0000,,
1332,0.0000,,
1333,0.0000,,
1334,0.0000,,
1335,0.0000,,
1336,0.0000,,
1337,0.0000,,
1338,0.0000,,
1339,0.0000,,
1340,0.0000,,
1341,0.0000,,
1342,0.0000,,
1343,0.0000,,
1344,0.0000,,
1345,0.0000,,
1346,0.0000,,
1347,0.0000,,
1348,0.0000,,
1349,0.0000,,
1350,0.0000,,
1351,0.0000,,
1352,0.0000,,
1353,0.0000,,
1354,0.0000,,
1355,0.0000,,
1356,0.0000,,
1357,0.0000,,
1358,0.0000,,
1359,0.0000,,
1360,0.0000,,
1361,0.0000,,
1362,0.0000,,
1363,0.0000,,
1364,0.0000,,
1365,0.0000,,
1366,0.0000,,
1367,0.0000,,
1368,0.0000,,
1369,0.0000,,
1370,0.0000,,
1371,0.0000,,
1372,0.0000,,
1373,0.0000,,
1374,0.0000,,
1375,0.0000,,
1376,0.0000,,
1377,0.0000,,
1378,0.0000,,
1379,0.0000,,
1380,0.0000,,
1381,0.0000,,
1382,0.0000,,
1383,0.0000,,
1384,0.0000,,
1385,0.0000,,
1386,0.0000,,
1387,0.0000,,
1388,0.0000,,
1389,0.0000,,
1390,0.0000,,
1391,0.0000,,
1392,0.0000,,
1393,0.0000,,
1394,0.0000,,
1395,0.0000,,
1396,0.0000,,
1397,0.0000,,
1398,0.0000,,
1399,0.0000,,
1400,0.0000,,
1401,0.0000,,
1402,0.0000,,
1403,0.0000,,
1404,0.0000,,
1405,0.0000,,
1406,0.0000,,
1407,0.0000,,
1408,0.0000,,
1409,0.0000,,
1410,0.0000,,
1411,0.0000,,
1412,0.0000,,
1413,0.0000,,
1414,0.0000,,
1415,0.0000,,
1416,0.0000,,
1417,0.0000,,
1418,0.0000,,
1419,0.0000,,
1420,0.0000,,
1421,0.0000,,
1422,0.0000,,
1423,0.0000,,
1424,0.0000,,
1425,0.0000,,
1426,0.0000,,
1427,0.0000,,
1428,0.0000,,
1429,0.0000,,
1430,0.0000,,
1431,0.0000,,
1432,0.0000,,
1433,0.0000,,
1434,0.0000,,
1435,0.0000,,
1436,0.0000,,
1437,0.0000,,
1438,0.0000,,
1439,0.0000,,
1440,0.0000,,
1441,0.0000,,
1442,0.0000,,
1443,0.0000,,
1444,0.0000,,
1445,0.0000,,
1446,0.0000,,
1447,0.0000,,
1448,0.0000,,
1449,0.0000,,
1450,0.0000,,
1451,0.0000,,
1452,0.0000,,
1453,0.0000,,
1454,0.0000,,
1455,0.0000,,
1456,0.0000,,
1457,0.0000,,
1458,0.0000,,
1459,0.0000,,
1460,0.0000,,
1461,0.0000,,
1462,0.0000,,
1463,0.0000,,
1464,0.0000,,
1465,0.0000,,
1466,0.0000,,
1467,0.0000,,
1468,0.0000,,
1469,0.0000,,
1470,0.0000,,
1471,0.0000,,
1472,0.0000,,
1473,0.0000,,
1474,0.0000,,
1475,0.0000,,
1476,0.0000,,
1477,0.0000,,
1478,0.0000,,
1479,0.0000,,
1480,0.0000,,
1481,0.0000,,
1482,0.0000,,
1483,0.0000,,
1484,0.0000,,
1485,0.0000,,
1486,0.0000,,
1487,0.0000,,
1488,0.0000,,
1489,0.0000,,
1490,0.0000,,
1491,0.0000,,
1492,0.0000,,
1493,0.0000,,
1494,0.0000,,
1495,0.0000,,
1496,0.0000,,
1497,0.0000,,
1498,0.0000,,
1499,0.0000,,
1500,0.0000,,
1501,0.0000,,
1502,0.0000,,
1503,0.0000,,
1504,0.0000,,
1505,0.0000,,
1506,0.0000,,
1507,0.0000,,
1508,0.0000,,
1509,0.0000,,
1510,0.0000,,
1511,0.0000,,
1512,0.0000,,
1513,0.0000,,
1514,0.0000,,
1515,0.0000,,
1516,0.0000,,
1517,0.0000,,
1518,0.0000,,
1519,0.0000,,
1520,0.0000,,
1521,0.0000,,
1522,0.0000,,
1523,0.0000,,
1524,0.0000,,
1525,0.0000,,
1526,0.0000,,
1527,0.0000,,
1528,0.0000,,
1529,0.0000,,
1530,0.0000,,
1531,0.0000,,
1532,0.0000,,
1533,0.0000,,
1534,0.0000,,
1535,0.0000,,
1536,0.0000,,
1537,0.0000,,
1538,0.0000,,
1539,0.0000,,
1540,0.0000,,
1541,0.0000,,
1542,0.0000,,
1543,0.0000,,
1544,0.0000,,
1545,0.0000,,
1546,0.0000,,
1547,0.0000,,
1548,0.0000,,
1549,0.0000,,
1550,0.0000,,
1551,0.0000,,
1552,0.0000,,
1553,0.0000,,
1554,0.0000,,
1555,0.0000,,
1556,0.0000,,
1557,0.0000,,
1558,0.0000,,
1559,0.0000,,
1560,0.0000,,
1561,0.0000,,
1562,0.0000,,
1563,0.0000,,
1564,0.0000,,
1565,0.0000,,
1566,0.0000,,
1567,0.0000,,
1568,0.0000,,
1569,0.0000,,
1570,0.0000,,
1571,0.0000,,
1572,0.0000,,
1573,0.0000,,
1574,0.0000,,
1575,0.0000,,
1576,0.0000,,
1577,0.0000,,
1578,0.0000,,
1579,0.0000,,
1580,0.0000,,
1581,0.0000,,
1582,0.0000,,
1583,0.0000,,
1584,0.0000,,
1585,0.0000,,
1586,0.0000,,
1587,0.0000,,
1588,0.0000,,
1589,0.0000,,
1590,0.0000,,
1591,0.0000,,
1592,0.0000,,
1593,0.0000,,
1594,0.0000,,
1595,0.0000,,
1596,0.0000,,
1597,0.0000,,
1598,0.0000,,
1599,0.0000,,
1600,0.0000,,
1601,0.0000,,
1602,0.0000,,
1603,0.0000,,
1604,0.0000,,
1605,0.0000,,
1606,0.0000,,
1607,0.0000,,
1608,0.0000,,
1609,0.0000,,
1610,0.0000,,
1611,0.0000,,
1612,0.0000,,
1613,0.0000,,
1614,0.0000,,
1615,0.0000,,
1616,0.0000,,
1617,0.0000,,
1618,0.0000,,
1619,0.0000,,
1620,0.0000,,
1621,0.0000,,
1622,0.0000,,
1623,0.0000,,
1624,0.0000,,
1625,0.0000,,
1626,0.0000,,
1627,0.0000,,
1628,0.0000,,
1629,0.0000,,
1630,0.0000,,
1631,0.0000,,
1632,0.0000,,
1633,0.0000,,
1634,0.0000,,
1635,0.0000,,
1636,0.0000,,
1637,0.0000,,
1638,0.0000,,
1639,0.0000,,
1640,0.0000,,
1641,0.0000,,
1642,0.0000,,
1643,0.0000,,
1644,0.0000,,
1645,0.0000,,
1646,0.0000,,
1647,0.0000,,
1648,0.0000,,
1649,0.0000,,
1650,0.0000,,
1651,0.0000,,
1652,0.0000,,
1653,0.0000,,
1654,0.0000,,
1655,0.0000,,
1656,0.0000,,
1657,0.0000,,
1658,0.0000,,
1659,0.0000,,
1660,0.0000,,
1661,0.0000,,
1662,0.0000,,
1663,0.0000,,
1664,0.0000,,
1665,0.0000,,
1666,0.0000,,
1667,0.0000,,
1668,0.0000,,
1669,0.0000,,
1670,0.0000,,
1671,0.0000,,
1672,0.0000,,
1673,0.0000,,
1674,0.0000,,
1675,0.0000,,
1676,0.0000,,
1677,0.0000,,
1678,0.0000,,
1679,0.0000,,
1680,0.0000,,
1681,0.0000,,
1682,0.0000,,
1683,0.0000,,
1684,0.0000,,
1685,0.0000,,
1686,0.0000,,
1687,0.0000,,
1688,0.0000,,
1689,0.0000,,
1690,0.0000,,
1691,0.0000,,
1692,0.0000,,
1693,0.0000,,
1694,0.0000,,
1695,0.0000,,
1696,0.0000,,
1697,0.0000,,
1698,0.0000,,
1699,0.0000,,
1700,0.0000,,
1701,0.0000,,
1702,0.0000,,
1703,0.0000,,
1704,0.0000,,
1705,0.0000,,
1706,0.0000,,
1707,0.0000,,
1708,0.0000,,
1709,0.0000,,
1710,0.0000,,
1711,0.0000,,
1712,0.0000,,
1713,0.0000,,
1714,0.0000,,
1715,0.0000,,
1716,0.0000,,
1717,0.0000,,
1718,0.0000,,
1719,0.0000,,
1720,0.0000,,
1721,0.0000,,
1722,0.0000,,
1723,0.0000,,
1724,0.0000,,
1725,0.0000,,
1726,0.0000,,
1727,0.0000,,
1728,0.0000,,
1729,0.0000,,
1730,0.0000,,
1731,0.0000,,
1732,0.0000,,
1733,0.0000,,
1734,0.0000,,
1735,0.0000,,
1736,0.0000,,
1737,0.0000,,
1738,0.0000,,
1739,0.0000,,
1740,0.0000,,
1741,0.0000,,
1742,0.0000,,
1743,0.0000,,
1744,0.0000,,
1745,0.0000,,
1746,0.0000,,
1747,0.0000,,
1748,0.0000,,
1749,0.0000,,
1750,0.0000,,
1751,0.0000,,
1752,0.0000,,
1753,0.0000,,
1754,0.0000,,
1755,0.0000,,
1756,0.0000,,
1757,0.0000,,
1758,0.0000,,
1759,0.0000,,
1760,0.0000,,
1761,0.0000,,
1762,0.0000,,
1763,0.0000,,
1764,0.0000,,
1765,0.0000,,
1766,0.0000,,
1767,0.0000,,
1768,0.0000,,
1769,0.0000,,
1770,0.0000,,
1771,0.0000,,
1772,0.0000,,
1773,0.0000,,
1774,0.0000,,
1775,0.0000,,
1776,0.0000,,
1777,0.0000,,
1778,0.0000,,
1779,0.0000,,
1780,0.0000,,
1781,0.0000,,
1782,0.0000,,
1783,0.0000,,
1784,0.0000,,
1785,0.0000,,
1786,0.0000,,
1787,0.0000,,
1788,0.0000,,
1789,0.0000,,
1790,0.0000,,
1791,0.0000,,
1792,0.0000,,
1793,0.0000,,
1794,0.0000,,
1795,0.0000,,
1796,0.0000,,
1797,0.0000,,
1798,0.0000,,
1799,0.0000,,
1800,0.0000,,
1801,0.0000,,
1802,0.0000,,
1803,0.0000,,
1804,0.0000,,
1805,0.0000,,
1806,0.0000,,
1807,0.0000,,
1808,0.0000,,
1809,0.0000,,
1810,0.0000,,
1811,0.0000,,
1812,0.0000,,
1813,0.0000,,
1814,0.0000,,
1815,0.0000,,
1816,0.0000,,
1817,0.0000,,
1818,0.0000,,
1819,0.0000,,
1820,0.0000,,
1821,0.0000,,
1822,0.0000,,
1823,0.0000,,
1824,0.0000,,
1825,0.0000,,
1826,0.0000,,
1827,0.0000,,
1828,0.0000,,
1829,0.0000,,
1830,0.0000,,
1831,0.0000,,
1832,0.0000,,
1833,0.0000,,
1834,0.0000,,
1835,0.0000,,
1836,0.0000,,
1837,0.0000,,
1838,0.0000,,
1839,0.0000,,
1840,0.0000,,
1841,0.0000,,
1842,0.0000,,
1843,0.0000,,
1844,0.0000,,
1845,0.0000,,
1846,0.0000,,
1847,0.0000,,
1848,0.0000,,
1849,0.0000,,
1850,0.0000,,
1851,0.0000,,
1852,0.0000,,
1853,0.0000,,
1854,0.0000,,
1855,0.0000,,
1856,0.0000,,
1857,0.0000,,
1858,0.0000,,
1859,0.0000,,
1860,0.0000,,
1861,0.0000,,
1862,0.0000,,
1863,0.0000,,
1864,0.0000,,
1865,0.0000,,
1866,0.0000,,
1867,0.0000,,
1868,0.0000,,
1869,0.0000,,
1870,0.0000,,
1871,0.0000,,
1872,0.0000,,
1873,0.0000,,
1874,0.0000,,
1875,0.0000,,
1876,0.0000,,
1877,0.0000,,
1878,0.0000,,
1879,0.0000,,
1880,0.0000,,
1881,0.0000,,
1882,0.0000,,
1883,0.0000,,
1884,0.0000,,
1885,0.0000,,
1886,0.0000,,
1887,0.0000,,
1888,0.0000,,
1889,0.0000,,
1890,0.0000,,
1891,0.0000,,
1892,0.0000,,
1893,0.0000,,
1894,0.0000,,
1895,0.0000,,
1896,0.0000,,
1897,0.0000,,
1898,0.0000,,
1899,0.0000,,
1900,0.0000,,
1901,0.0000,,
1902,0.0000,,
1903,0.0000,,
1904,0.0000,,
1905,0.0000,,
1906,0.0000,,
1907,0.0000,,
1908,0.0000,,
1909,0.0000,,
1910,0.0000,,
1911,0.0000,,
1912,0.0000,,
1913,0.0000,,
1914,0.0000,,
1915,0.0000,,
1916,0.0000,,
1917,0.0000,,
1918,0.0000,,
1919,0.0000,,
1920,0.0000,,
1921,0.0000,,
1922,0.0000,,
1923,0.0000,,
1924,0.0000,,
1925,0.0000,,
1926,0.0000,,
1927,0.0000,,
1928,0.0000,,
1929,0.0000,,
1930,0.0000,,
1931,0.0000,,
1932,0.0000,,
1933,0.0000,,
1934,0.0000,,
1935,0.0000,,
1936,0.0000,,
1937,0.0000,,
1938,0.0000,,
1939,0.0000,,
1940,0.0000,,
1941,0.0000,,
1942,0.0000,,
1943,0.0000,,
1944,0.0000,,
1945,0.0000,,
1946,0.0000,,
1947,0.0000,,
1948,0.0000,,
1949,0.0000,,
1950,0.0000,,
1951,0.0000,,
1952,0.0000,,
1953,0.0000,,
1954,0.0000,,
1955,0.0000,,
1956,0.0000,,
1957,0.0000,,
1958,0.0000,,
1959,0.0000,,
1960,0.0000,,
1961,0.0000,,
1962,0.0000,,
1963,0.0000,,
1964,0.0000,,
1965,0.0000,,
1966,0.0000,,
1967,0.0000,,
1968,0.0000,,
1969,0.0000,,
1970,0.0000,,
1971,0.0000,,
1972,0.0000,,
1973,0.0000,,
1974,0.0000,,
1975,0.0000,,
1976,0.0000,,
1977,0.0000,,
1978,0.0000,,
1979,0.0000,,
1980,0.0000,,
1981,0.0000,,
1982,0.0000,,
1983,0.0000,,
1984,0.0000,,
1985,0.0000,,
1986,0.0000,,
1987,0.0000,,
1988,0.0000,,
1989,0.0000,,
1990,0.0000,,
1991,0.0000,,
1992,0.0000,,
1993,0.0000,,
1994,0.0000,,
1995,0.0000,,
1996,0.0000,,
1997,0.0000,,
1998,0.0000,,
1999,0.0000,,

[Histogram Data]
Binwidth,4
Particle Size (nm),Concentration (E6 particles / ml),,
2.0,0.0000,,
6.0,0.0000,,
10.0,0.0000,,
14.0,0.0000,,
18.0,0.0000,,
22.0,0.0000,,
26.0,0.1812,,
30.0,0.9545,,
34.0,2.0661,,
38.0,4.1925,,
42.0,5.8840,,
46.0,6.5365,,
50.0,9.1100,,
54.0,10.9948,,
58.0,12.3963,,
62.0,10.2699,,
66.0,9.9799,,
70.0,12.6863,,
74.0,13.3750,,
78.0,12.3963,,
82.0,11.8406,,
86.0,13.6167,,
90.0,13.7375,,
94.0,16.6493,,
98.0,13.3388,,
102.0,17.4588,,
106.0,20.4310,,
110.0,17.4225,,
114.0,18.7637,,
118.0,17.8575,,
122.0,17.7246,,
126.0,15.9485,,
130.0,17.1688,,
134.0,21.7842,,
138.0,21.6876,,
142.0,27.4387,,
146.0,26.4238,,
150.0,31.8004,,
154.0,29.4685,,
158.0,27.2091,,
162.0,39.4605,,
166.0,20.6364,,
170.0,33.4556,,
174.0,48.4255,,
178.0,29.3114,,
182.0,35.4613,,
186.0,48.3288,,
190.0,50.3466,,
194.0,33.8544,,
198.0,44.6075,,
202.0,24.6598,,
206.0,17.6521,,
210.0,18.7395,,
214.0,12.7588,,
218.0,10.0041,,
222.0,15.5498,,
226.0,22.7025,,
230.0,9.3758,,
234.0,6.6452,,
238.0,5.4732,,
242.0,6.4761,,
246.0,1.8123,,
250.0,3.8905,,
254.0,6.1740,,
258.0,5.4732,,
262.0,9.1583,,
266.0,1.1478,,
270.0,0.9303,,
274.0,2.1265,,
278.0,1.7882,,
282.0,0.6404,,
286.0,0.4108,,
290.0,2.1627,,
294.0,0.2054,,
298.0,3.0326,,
302.0,1.0632,,
306.0,0.1208,,
310.0,0.6766,,
314.0,0.8820,,
318.0,0.5799,,
322.0,0.4712,,
326.0,0.1812,,
330.0,0.0000,,
334.0,0.5558,,
338.0,0.3866,,
342.0,0.1329,,
346.0,1.0391,,
350.0,0.1692,,
354.0,0.2900,,
358.0,0.0000,,
362.0,0.1208,,
366.0,0.0000,,
370.0,0.1329,,
374.0,0.2054,,
378.0,0.1933,,
382.0,0.0000,,
386.0,0.0000,,
390.0,0.0000,,
394.0,0.0000,,
398.0,0.0000,,
402.0,0.0000,,
406.0,0.0000,,
410.0,0.0000,,
414.0,0.0000,,
418.0,0.0000,,
422.0,0.0000,,
426.0,0.0000,,
430.0,0.0000,,
434.0,0.0000,,
438.0,0.0000,,
442.0,0.0000,,
446.0,0.0000,,
450.0,0.0000,,
454.0,0.0000,,
458.0,0.0000,,
462.0,0.0000,,
466.0,0.0000,,
470.0,0.0000,,
474.0,0.0000,,
478.0,0.0000,,
482.0,0.0000,,
486.0,0.0000,,
490.0,0.0000,,
494.0,0.0000,,
498.0,0.0000,,
502.0,0.0000,,
506.0,0.0000,,
510.0,0.0000,,
514.0,0.0000,,
518.0,0.0000,,
522.0,0.0000,,
526.0,0.0000,,
530.0,0.0000,,
534.0,0.0000,,
538.0,0.0000,,
542.0,0.0000,,
546.0,0.0000,,
550.0,0.0000,,
554.0,0.0000,,
558.0,0.1933,,
562.0,0.0000,,
566.0,0.0000,,
570.0,0.0000,,
574.0,0.0000,,
578.0,0.0000,,
582.0,0.0000,,
586.0,0.0000,,
590.0,0.0000,,
594.0,0.0000,,
598.0,0.0000,,
602.0,0.0000,,
606.0,0.0000,,
610.0,0.0000,,
614.0,0.0000,,
618.0,0.0000,,
622.0,0.0000,,
626.0,0.0000,,
630.0,0.0000,,
634.0,0.0000,,
638.0,0.0000,,
642.0,0.0000,,
646.0,0.0000,,
650.0,0.0000,,
654.0,0.0000,,
658.0,0.0000,,
662.0,0.0000,,
666.0,0.0000,,
670.0,0.0000,,
674.0,0.0000,,
678.0,0.0000,,
682.0,0.0000,,
686.0,0.0000,,
690.0,0.0000,,
694.0,0.0000,,
698.0,0.0000,,
702.0,0.0000,,
706.0,0.0000,,
710.0,0.0000,,
714.0,0.0000,,
718.0,0.0000,,
722.0,0.0000,,
726.0,0.0000,,
730.0,0.0000,,
734.0,0.0000,,
738.0,0.0000,,
742.0,0.0000,,
746.0,0.0000,,
750.0,0.0000,,
754.0,0.0000,,
758.0,0.0000,,
762.0,0.0000,,
766.0,0.0000,,
770.0,0.0000,,
774.0,0.0000,,
778.0,0.0000,,
782.0,0.0000,,
786.0,0.0000,,
790.0,0.0000,,
794.0,0.0000,,
798.0,0.0000,,
802.0,0.0000,,
806.0,0.0000,,
810.0,0.0000,,
814.0,0.0000,,
818.0,0.0000,,
822.0,0.0000,,
826.0,0.0000,,
830.0,0.0000,,
834.0,0.0000,,
838.0,0.0000,,
842.0,0.0000,,
846.0,0.0000,,
850.0,0.0000,,
854.0,0.0000,,
858.0,0.0000,,
862.0,0.0000,,
866.0,0.0000,,
870.0,0.0000,,
874.0,0.0000,,
878.0,0.0000,,
882.0,0.0000,,
886.0,0.0000,,
890.0,0.0000,,
894.0,0.0000,,
898.0,0.0000,,
902.0,0.0000,,
906.0,0.0000,,
910.0,0.0000,,
914.0,0.0000,,
918.0,0.0000,,
922.0,0.0000,,
926.0,0.0000,,
930.0,0.0000,,
934.0,0.0000,,
938.0,0.0000,,
942.0,0.0000,,
946.0,0.0000,,
950.0,0.0000,,
954.0,0.0000,,
958.0,0.0000,,
962.0,0.0000,,
966.0,0.0000,,
970.0,0.0000,,
974.0,0.0000,,
978.0,0.0000,,
982.0,0.0000,,
986.0,0.0000,,
990.0,0.0000,,
994.0,0.0000,,
998.0,0.0000,,
1002.0,0.0000,,
1006.0,0.0000,,
1010.0,0.0000,,
1014.0,0.0000,,
1018.0,0.0000,,
1022.0,0.0000,,
1026.0,0.0000,,
1030.0,0.0000,,
1034.0,0.0000,,
1038.0,0.0000,,
1042.0,0.0000,,
1046.0,0.0000,,
1050.0,0.0000,,
1054.0,0.0000,,
1058.0,0.0000,,
1062.0,0.0000,,
1066.0,0.0000,,
1070.0,0.0000,,
1074.0,0.0000,,
1078.0,0.0000,,
1082.0,0.0000,,
1086.0,0.0000,,
1090.0,0.0000,,
1094.0,0.0000,,
1098.0,0.0000,,
1102.0,0.0000,,
1106.0,0.0000,,
1110.0,0.0000,,
1114.0,0.0000,,
1118.0,0.0000,,
1122.0,0.0000,,
1126.0,0.0000,,
1130.0,0.0000,,
1134.0,0.0000,,
1138.0,0.0000,,
1142.0,0.0000,,
1146.0,0.0000,,
1150.0,0.0000,,
1154.0,0.0000,,
1158.0,0.0000,,
1162.0,0.0000,,
1166.0,0.0000,,
1170.0,0.0000,,
1174.0,0.0000,,
1178.0,0.0000,,
1182.0,0.0000,,
1186.0,0.0000,,
1190.0,0.0000,,
1194.0,0.0000,,
1198.0,0.0000,,
1202.0,0.0000,,
1206.0,0.0000,,
1210.0,0.0000,,
1214.0,0.0000,,
1218.0,0.0000,,
1222.0,0.0000,,
1226.0,0.0000,,
1230.0,0.0000,,
1234.0,0.0000,,
1238.0,0.0000,,
1242.0,0.0000,,
1246.0,0.0000,,
1250.0,0.0000,,
1254.0,0.0000,,
1258.0,0.0000,,
1262.0,0.0000,,
1266.0,0.0000,,
1270.0,0.0000,,
1274.0,0.0000,,
1278.0,0.0000,,
1282.0,0.0000,,
1286.0,0.0000,,
1290.0,0.0000,,
1294.0,0.0000,,
1298.0,0.0000,,
1302.0,0.0000,,
1306.0,0.0000,,
1310.0,0.0000,,
1314.0,0.0000,,
1318.0,0.0000,,
1322.0,0.0000,,
1326.0,0.0000,,
1330.0,0.0000,,
1334.0,0.0000,,
1338.0,0.0000,,
1342.0,0.0000,,
1346.0,0.0000,,
1350.0,0.0000,,
1354.0,0.0000,,
1358.0,0.0000,,
1362.0,0.0000,,
1366.0,0.0000,,
1370.0,0.0000,,
1374.0,0.0000,,
1378.0,0.0000,,
1382.0,0.0000,,
1386.0,0.0000,,
1390.0,0.0000,,
1394.0,0.0000,,
1398.0,0.0000,,
1402.0,0.0000,,
1406.0,0.0000,,
1410.0,0.0000,,
1414.0,0.0000,,
1418.0,0.0000,,
1422.0,0.0000,,
1426.0,0.0000,,
1430.0,0.0000,,
1434.0,0.0000,,
1438.0,0.0000,,
1442.0,0.0000,,
1446.0,0.0000,,
1450.0,0.0000,,
1454.0,0.0000,,
1458.0,0.0000,,
1462.0,0.0000,,
1466.0,0.0000,,
1470.0,0.0000,,
1474.0,0.0000,,
1478.0,0.0000,,
1482.0,0.0000,,
1486.0,0.0000,,
1490.0,0.0000,,
1494.0,0.0000,,
1498.0,0.0000,,
1502.0,0.0000,,
1506.0,0.0000,,
1510.0,0.0000,,
1514.0,0.0000,,
1518.0,0.0000,,
1522.0,0.0000,,
1526.0,0.0000,,
1530.0,0.0000,,
1534.0,0.0000,,
1538.0,0.0000,,
1542.0,0.0000,,
1546.0,0.0000,,
1550.0,0.0000,,
1554.0,0.0000,,
1558.0,0.0000,,
1562.0,0.0000,,
1566.0,0.0000,,
1570.0,0.0000,,
1574.0,0.0000,,
1578.0,0.0000,,
1582.0,0.0000,,
1586.0,0.0000,,
1590.0,0.0000,,
1594.0,0.0000,,
1598.0,0.0000,,
1602.0,0.0000,,
1606.0,0.0000,,
1610.0,0.0000,,
1614.0,0.0000,,
1618.0,0.0000,,
1622.0,0.0000,,
1626.0,0.0000,,
1630.0,0.0000,,
1634.0,0.0000,,
1638.0,0.0000,,
1642.0,0.0000,,
1646.0,0.0000,,
1650.0,0.0000,,
1654.0,0.0000,,
1658.0,0.0000,,
1662.0,0.0000,,
1666.0,0.0000,,
1670.0,0.0000,,
1674.0,0.0000,,
1678.0,0.0000,,
1682.0,0.0000,,
1686.0,0.0000,,
1690.0,0.0000,,
1694.0,0.0000,,
1698.0,0.0000,,
1702.0,0.0000,,
1706.0,0.0000,,
1710.0,0.0000,,
1714.0,0.0000,,
1718.0,0.0000,,
1722.0,0.0000,,
1726.0,0.0000,,
1730.0,0.0000,,
1734.0,0.0000,,
1738.0,0.0000,,
1742.0,0.0000,,
1746.0,0.0000,,
1750.0,0.0000,,
1754.0,0.0000,,
1758.0,0.0000,,
1762.0,0.0000,,
1766.0,0.0000,,
1770.0,0.0000,,
1774.0,0.0000,,
1778.0,0.0000,,
1782.0,0.0000,,
1786.0,0.0000,,
1790.0,0.0000,,
1794.0,0.0000,,
1798.0,0.0000,,
1802.0,0.0000,,
1806.0,0.0000,,
1810.0,0.0000,,
1814.0,0.0000,,
1818.0,0.0000,,
1822.0,0.0000,,
1826.0,0.0000,,
1830.0,0.0000,,
1834.0,0.0000,,
1838.0,0.0000,,
1842.0,0.0000,,
1846.0,0.0000,,
1850.0,0.0000,,
1854.0,0.0000,,
1858.0,0.0000,,
1862.0,0.0000,,
1866.0,0.0000,,
1870.0,0.0000,,
1874.0,0.0000,,
1878.0,0.0000,,
1882.0,0.0000,,
1886.0,0.0000,,
1890.0,0.0000,,
1894.0,0.0000,,
1898.0,0.0000,,
1902.0,0.0000,,
1906.0,0.0000,,
1910.0,0.0000,,
1914.0,0.0000,,
1918.0,0.0000,,
1922.0,0.0000,,
1926.0,0.0000,,
1930.0,0.0000,,
1934.0,0.0000,,
1938.0,0.0000,,
1942.0,0.0000,,
1946.0,0.0000,,
1950.0,0.0000,,
1954.0,0.0000,,
1958.0,0.0000,,
1962.0,0.0000,,
1966.0,0.0000,,
1970.0,0.0000,,
1974.0,0.0000,,
1978.0,0.0000,,
1982.0,0.0000,,
1986.0,0.0000,,
1990.0,0.0000,,
1994.0,0.0000,,
1998.0,0.0000,,

[Percentile Undersize]
Percentile,Particle Size (nm),
0,20,
1,42,
2,48,
3,52,
4,56,
5,60,
6,64,
7,68,
8,72,
9,75,
10,78,
11,82,
12,85,
13,88,
14,91,
15,94,
16,97,
17,100,
18,102,
19,105,
20,107,
21,109,
22,112,
23,114,
24,117,
25,119,
26,121,
27,124,
28,126,
29,128,
30,131,
31,133,
32,135,
33,137,
34,138,
35,140,
36,142,
37,144,
38,145,
39,147,
40,148,
41,150,
42,151,
43,153,
44,154,
45,156,
46,157,
47,158,
48,160,
49,161,
50,162,
51,164,
52,165,
53,166,
54,168,
55,169,
56,170,
57,171,
58,173,
59,174,
60,175,
61,176,
62,177,
63,179,
64,180,
65,181,
66,182,
67,183,
68,184,
69,186,
70,187,
71,188,
72,189,
73,190,
74,192,
75,193,
76,194,
77,196,
78,197,
79,198,
80,200,
81,201,
82,203,
83,205,
84,207,
85,209,
86,211,
87,213,
88,215,
89,218,
90,221,
91,224,
92,228,
93,232,
94,237,
95,242,
96,249,
97,258,
98,271,
99,294,
100,708,

