[Software Info]
Build,NTA 2.3 build 0033

[Sample Information]
Operator,""
Sample Description,"coffee"
Diluent,"aqua dest."
Concentration,"1:9"
Pre-treatmeant,""
Comments,""

[Results Summary]
Total Frames,1800
Processed Frames,1800
Valid Tracks,3494
Overall Drift (nm/s),78.97
X-Drift (nm/s),-44.71
Y-Drift (nm/s),65.10
Calibration (nm/pixel),166

Size Data - Volume Weighted,
Mode (nm),499.00
Mean (nm),592.55
Standard Deviation (nm),202.78
Size data - Model Fit,
Mean (nm),0.00
Standard Deviation (nm),0.00

User Line 1,0
User Line 2,0
Average # centres/frame,97.28
Average # particles/frame,81.40
Equivalent particle concentration (E8 particles/ml),12.87
Selected average # particles/frame,0.00
Selected equivalent particle concentration (E8 particles/ml),0.00

[Settings],
Background Extract,On
Brightness,0
Gain,1.00
Blur Size,Auto,
Detection Threshold Type,Multi,
Detection Threshold,38
Min Track Length,Auto
Min Expected Size (nm),Auto

[Measurement Conditions]
Camera Type,CCD
Camera Shutter (ms),10.00
Camera Gain,250
Frame rate (fps),30.00
Temperature (°C),23.60
Viscosity (cP),0.918

[Warnings]
Low Completed Tracks,No
High Noise,0 frames
Auto max jump,Successful
Drift off,No
Settings Changed Whilst Processing,No
Vibration detected,Vibration detected <~10% error
Additional Errors,None

[Graph Data]
Particle Size (nm),Volume Concentration (E12 nm³ / ml),,
0,0.0000,,
1,0.0000,,
2,0.0000,,
3,0.0000,,
4,0.0000,,
5,0.0000,,
6,0.0000,,
7,0.0000,,
8,0.0000,,
9,0.0000,,
10,0.0000,,
11,0.0000,,
12,0.0000,,
13,0.0000,,
14,0.0000,,
15,0.0000,,
16,0.0000,,
17,0.0000,,
18,0.0000,,
19,0.0000,,
20,0.0000,,
21,0.0000,,
22,0.0000,,
23,0.0000,,
24,0.0000,,
25,0.0000,,
26,0.0000,,
27,0.0000,,
28,0.0000,,
29,0.0000,,
30,0.0000,,
31,0.0000,,
32,0.0000,,
33,0.0000,,
34,0.0000,,
35,0.0000,,
36,0.0000,,
37,0.0000,,
38,0.0000,,
39,0.0000,,
40,0.0000,,
41,0.0000,,
42,0.0000,,
43,0.0000,,
44,0.0000,,
45,0.0000,,
46,0.0000,,
47,0.0000,,
48,0.0000,,
49,0.0000,,
50,0.0000,,
51,0.0000,,
52,0.0000,,
53,0.0000,,
54,0.0000,,
55,0.0000,,
56,0.0000,,
57,0.0000,,
58,0.0001,,
59,0.0001,,
60,0.0002,,
61,0.0003,,
62,0.0004,,
63,0.0005,,
64,0.0007,,
65,0.0010,,
66,0.0013,,
67,0.0016,,
68,0.0019,,
69,0.0022,,
70,0.0026,,
71,0.0030,,
72,0.0035,,
73,0.0042,,
74,0.0050,,
75,0.0060,,
76,0.0072,,
77,0.0088,,
78,0.0106,,
79,0.0129,,
80,0.0154,,
81,0.0184,,
82,0.0216,,
83,0.0252,,
84,0.0290,,
85,0.0330,,
86,0.0371,,
87,0.0413,,
88,0.0455,,
89,0.0498,,
90,0.0542,,
91,0.0589,,
92,0.0639,,
93,0.0694,,
94,0.0755,,
95,0.0825,,
96,0.0906,,
97,0.0998,,
98,0.1104,,
99,0.1226,,
100,0.1365,,
101,0.1522,,
102,0.1699,,
103,0.1898,,
104,0.2120,,
105,0.2364,,
106,0.2632,,
107,0.2924,,
108,0.3238,,
109,0.3573,,
110,0.3927,,
111,0.4296,,
112,0.4677,,
113,0.5068,,
114,0.5463,,
115,0.5860,,
116,0.6254,,
117,0.6644,,
118,0.7028,,
119,0.7404,,
120,0.7773,,
121,0.8136,,
122,0.8493,,
123,0.8848,,
124,0.9205,,
125,0.9566,,
126,0.9937,,
127,1.0321,,
128,1.0722,,
129,1.1146,,
130,1.1595,,
131,1.2073,,
132,1.2585,,
133,1.3131,,
134,1.3715,,
135,1.4337,,
136,1.4999,,
137,1.5701,,
138,1.6444,,
139,1.7228,,
140,1.8054,,
141,1.8919,,
142,1.9823,,
143,2.0768,,
144,2.1751,,
145,2.2772,,
146,2.3832,,
147,2.4928,,
148,2.6062,,
149,2.7231,,
150,2.8436,,
151,2.9675,,
152,3.0947,,
153,3.2250,,
154,3.3586,,
155,3.4949,,
156,3.6339,,
157,3.7755,,
158,3.9192,,
159,4.0650,,
160,4.2125,,
161,4.3615,,
162,4.5117,,
163,4.6630,,
164,4.8151,,
165,4.9677,,
166,5.1207,,
167,5.2738,,
168,5.4270,,
169,5.5801,,
170,5.7331,,
171,5.8857,,
172,6.0380,,
173,6.1901,,
174,6.3419,,
175,6.4934,,
176,6.6450,,
177,6.7963,,
178,6.9478,,
179,7.0998,,
180,7.2520,,
181,7.4050,,
182,7.5586,,
183,7.7132,,
184,7.8695,,
185,8.0267,,
186,8.1856,,
187,8.3466,,
188,8.5093,,
189,8.6741,,
190,8.8414,,
191,9.0107,,
192,9.1825,,
193,9.3568,,
194,9.5336,,
195,9.7130,,
196,9.8949,,
197,10.0792,,
198,10.2662,,
199,10.4555,,
200,10.6471,,
201,10.8411,,
202,11.0372,,
203,11.2356,,
204,11.4359,,
205,11.6382,,
206,11.8430,,
207,12.0493,,
208,12.2579,,
209,12.4687,,
210,12.6814,,
211,12.8964,,
212,13.1142,,
213,13.3340,,
214,13.5570,,
215,13.7826,,
216,14.0114,,
217,14.2438,,
218,14.4793,,
219,14.7184,,
220,14.9616,,
221,15.2086,,
222,15.4598,,
223,15.7154,,
224,15.9750,,
225,16.2395,,
226,16.5074,,
227,16.7796,,
228,17.0565,,
229,17.3367,,
230,17.6207,,
231,17.9083,,
232,18.1990,,
233,18.4927,,
234,18.7893,,
235,19.0880,,
236,19.3888,,
237,19.6910,,
238,19.9943,,
239,20.2992,,
240,20.6044,,
241,20.9103,,
242,21.2169,,
243,21.5237,,
244,21.8302,,
245,22.1375,,
246,22.4446,,
247,22.7525,,
248,23.0606,,
249,23.3693,,
250,23.6797,,
251,23.9910,,
252,24.3044,,
253,24.6204,,
254,24.9389,,
255,25.2605,,
256,25.5864,,
257,25.9159,,
258,26.2506,,
259,26.5901,,
260,26.9349,,
261,27.2859,,
262,27.6428,,
263,28.0068,,
264,28.3777,,
265,28.7551,,
266,29.1395,,
267,29.5319,,
268,29.9309,,
269,30.3376,,
270,30.7508,,
271,31.1707,,
272,31.5976,,
273,32.0306,,
274,32.4698,,
275,32.9153,,
276,33.3657,,
277,33.8209,,
278,34.2812,,
279,34.7451,,
280,35.2137,,
281,35.6854,,
282,36.1603,,
283,36.6382,,
284,37.1190,,
285,37.6021,,
286,38.0877,,
287,38.5747,,
288,39.0642,,
289,39.5562,,
290,40.0494,,
291,40.5452,,
292,41.0420,,
293,41.5408,,
294,42.0423,,
295,42.5460,,
296,43.0516,,
297,43.5604,,
298,44.0719,,
299,44.5860,,
300,45.1035,,
301,45.6243,,
302,46.1493,,
303,46.6786,,
304,47.2119,,
305,47.7502,,
306,48.2924,,
307,48.8393,,
308,49.3918,,
309,49.9490,,
310,50.5112,,
311,51.0794,,
312,51.6533,,
313,52.2335,,
314,52.8194,,
315,53.4105,,
316,54.0090,,
317,54.6131,,
318,55.2229,,
319,55.8384,,
320,56.4603,,
321,57.0869,,
322,57.7197,,
323,58.3581,,
324,59.0020,,
325,59.6508,,
326,60.3044,,
327,60.9621,,
328,61.6245,,
329,62.2911,,
330,62.9612,,
331,63.6343,,
332,64.3101,,
333,64.9887,,
334,65.6697,,
335,66.3522,,
336,67.0352,,
337,67.7185,,
338,68.4022,,
339,69.0850,,
340,69.7665,,
341,70.4469,,
342,71.1247,,
343,71.7997,,
344,72.4739,,
345,73.1438,,
346,73.8097,,
347,74.4707,,
348,75.1259,,
349,75.7752,,
350,76.4192,,
351,77.0564,,
352,77.6874,,
353,78.3112,,
354,78.9281,,
355,79.5371,,
356,80.1381,,
357,80.7312,,
358,81.3186,,
359,81.8952,,
360,82.4651,,
361,83.0260,,
362,83.5785,,
363,84.1232,,
364,84.6599,,
365,85.1882,,
366,85.7095,,
367,86.2224,,
368,86.7298,,
369,87.2288,,
370,87.7217,,
371,88.2080,,
372,88.6875,,
373,89.1613,,
374,89.6337,,
375,90.0989,,
376,90.5591,,
377,91.0170,,
378,91.4700,,
379,91.9213,,
380,92.3699,,
381,92.8166,,
382,93.2613,,
383,93.7046,,
384,94.1479,,
385,94.5919,,
386,95.0353,,
387,95.4804,,
388,95.9282,,
389,96.3766,,
390,96.8268,,
391,97.2793,,
392,97.7344,,
393,98.1927,,
394,98.6551,,
395,99.1234,,
396,99.5950,,
397,100.0695,,
398,100.5492,,
399,101.0345,,
400,101.5244,,
401,102.0199,,
402,102.5217,,
403,103.0276,,
404,103.5407,,
405,104.0591,,
406,104.5828,,
407,105.1132,,
408,105.6494,,
409,106.1914,,
410,106.7403,,
411,107.2963,,
412,107.8588,,
413,108.4266,,
414,109.0014,,
415,109.5810,,
416,110.1666,,
417,110.7591,,
418,111.3585,,
419,111.9627,,
420,112.5735,,
421,113.1898,,
422,113.8123,,
423,114.4402,,
424,115.0735,,
425,115.7121,,
426,116.3573,,
427,117.0069,,
428,117.6626,,
429,118.3235,,
430,118.9882,,
431,119.6572,,
432,120.3315,,
433,121.0090,,
434,121.6920,,
435,122.3778,,
436,123.0664,,
437,123.7590,,
438,124.4538,,
439,125.1507,,
440,125.8515,,
441,126.5525,,
442,127.2557,,
443,127.9607,,
444,128.6652,,
445,129.3699,,
446,130.0750,,
447,130.7778,,
448,131.4802,,
449,132.1803,,
450,132.8782,,
451,133.5732,,
452,134.2660,,
453,134.9527,,
454,135.6342,,
455,136.3105,,
456,136.9812,,
457,137.6448,,
458,138.3009,,
459,138.9495,,
460,139.5890,,
461,140.2197,,
462,140.8396,,
463,141.4492,,
464,142.0478,,
465,142.6346,,
466,143.2086,,
467,143.7702,,
468,144.3185,,
469,144.8521,,
470,145.3771,,
471,145.8816,,
472,146.3706,,
473,146.8437,,
474,147.3008,,
475,147.7410,,
476,148.1637,,
477,148.5687,,
478,148.9563,,
479,149.3260,,
480,149.6780,,
481,150.0112,,
482,150.3261,,
483,150.6226,,
484,150.9008,,
485,151.1598,,
486,151.4001,,
487,151.6232,,
488,151.8267,,
489,152.0122,,
490,152.1786,,
491,152.3266,,
492,152.4570,,
493,152.5695,,
494,152.6648,,
495,152.7424,,
496,152.8031,,
497,152.8467,,
498,152.8743,,
499,152.8863,,
500,152.8827,,
501,152.8629,,
502,152.8278,,
503,152.7792,,
504,152.7152,,
505,152.6376,,
506,152.5463,,
507,152.4415,,
508,152.3245,,
509,152.1950,,
510,152.0533,,
511,151.8998,,
512,151.7347,,
513,151.5595,,
514,151.3731,,
515,151.1759,,
516,150.9695,,
517,150.7535,,
518,150.5280,,
519,150.2930,,
520,150.0493,,
521,149.7968,,
522,149.5373,,
523,149.2682,,
524,148.9934,,
525,148.7088,,
526,148.4167,,
527,148.1178,,
528,147.8118,,
529,147.4978,,
530,147.1771,,
531,146.8490,,
532,146.5152,,
533,146.1741,,
534,145.8263,,
535,145.4723,,
536,145.1110,,
537,144.7431,,
538,144.3677,,
539,143.9856,,
540,143.5973,,
541,143.2029,,
542,142.8014,,
543,142.3921,,
544,141.9769,,
545,141.5556,,
546,141.1267,,
547,140.6901,,
548,140.2463,,
549,139.7961,,
550,139.3388,,
551,138.8747,,
552,138.4035,,
553,137.9241,,
554,137.4383,,
555,136.9481,,
556,136.4483,,
557,135.9407,,
558,135.4256,,
559,134.9032,,
560,134.3741,,
561,133.8374,,
562,133.2932,,
563,132.7445,,
564,132.1874,,
565,131.6231,,
566,131.0516,,
567,130.4731,,
568,129.8877,,
569,129.2962,,
570,128.6986,,
571,128.0945,,
572,127.4844,,
573,126.8683,,
574,126.2471,,
575,125.6202,,
576,124.9880,,
577,124.3496,,
578,123.7069,,
579,123.0603,,
580,122.4089,,
581,121.7531,,
582,121.0937,,
583,120.4307,,
584,119.7649,,
585,119.0957,,
586,118.4237,,
587,117.7498,,
588,117.0738,,
589,116.3958,,
590,115.7157,,
591,115.0351,,
592,114.3538,,
593,113.6695,,
594,112.9871,,
595,112.3042,,
596,111.6206,,
597,110.9386,,
598,110.2580,,
599,109.5776,,
600,108.8986,,
601,108.2218,,
602,107.5486,,
603,106.8772,,
604,106.2085,,
605,105.5412,,
606,104.8776,,
607,104.2170,,
608,103.5606,,
609,102.9075,,
610,102.2581,,
611,101.6127,,
612,100.9723,,
613,100.3374,,
614,99.7064,,
615,99.0807,,
616,98.4601,,
617,97.8451,,
618,97.2352,,
619,96.6292,,
620,96.0311,,
621,95.4386,,
622,94.8527,,
623,94.2720,,
624,93.6980,,
625,93.1304,,
626,92.5693,,
627,92.0153,,
628,91.4676,,
629,90.9260,,
630,90.3926,,
631,89.8651,,
632,89.3453,,
633,88.8329,,
634,88.3266,,
635,87.8275,,
636,87.3359,,
637,86.8500,,
638,86.3723,,
639,85.9016,,
640,85.4386,,
641,84.9834,,
642,84.5355,,
643,84.0949,,
644,83.6617,,
645,83.2352,,
646,82.8175,,
647,82.4048,,
648,82.0012,,
649,81.6053,,
650,81.2157,,
651,80.8352,,
652,80.4619,,
653,80.0963,,
654,79.7379,,
655,79.3873,,
656,79.0432,,
657,78.7070,,
658,78.3779,,
659,78.0572,,
660,77.7441,,
661,77.4383,,
662,77.1400,,
663,76.8489,,
664,76.5652,,
665,76.2920,,
666,76.0231,,
667,75.7619,,
668,75.5072,,
669,75.2601,,
670,75.0209,,
671,74.7873,,
672,74.5620,,
673,74.3440,,
674,74.1332,,
675,73.9291,,
676,73.7320,,
677,73.5425,,
678,73.3588,,
679,73.1818,,
680,73.0122,,
681,72.8480,,
682,72.6879,,
683,72.5364,,
684,72.3911,,
685,72.2504,,
686,72.1168,,
687,71.9882,,
688,71.8651,,
689,71.7479,,
690,71.6357,,
691,71.5296,,
692,71.4276,,
693,71.3301,,
694,71.2366,,
695,71.1462,,
696,71.0616,,
697,70.9802,,
698,70.9030,,
699,70.8286,,
700,70.7571,,
701,70.6899,,
702,70.6247,,
703,70.5625,,
704,70.5031,,
705,70.4450,,
706,70.3888,,
707,70.3340,,
708,70.2809,,
709,70.2284,,
710,70.1756,,
711,70.1243,,
712,70.0742,,
713,70.0235,,
714,69.9737,,
715,69.9219,,
716,69.8710,,
717,69.8193,,
718,69.7664,,
719,69.7121,,
720,69.6555,,
721,69.5970,,
722,69.5388,,
723,69.4772,,
724,69.4132,,
725,69.3455,,
726,69.2759,,
727,69.2035,,
728,69.1279,,
729,69.0491,,
730,68.9666,,
731,68.8804,,
732,68.7901,,
733,68.6957,,
734,68.5973,,
735,68.4947,,
736,68.3875,,
737,68.2747,,
738,68.1584,,
739,68.0358,,
740,67.9097,,
741,67.7790,,
742,67.6422,,
743,67.5011,,
744,67.3550,,
745,67.2033,,
746,67.0470,,
747,66.8854,,
748,66.7184,,
749,66.5457,,
750,66.3684,,
751,66.1849,,
752,65.9963,,
753,65.8032,,
754,65.6049,,
755,65.4014,,
756,65.1925,,
757,64.9786,,
758,64.7600,,
759,64.5353,,
760,64.3070,,
761,64.0736,,
762,63.8357,,
763,63.5934,,
764,63.3474,,
765,63.0963,,
766,62.8399,,
767,62.5805,,
768,62.3173,,
769,62.0502,,
770,61.7793,,
771,61.5044,,
772,61.2268,,
773,60.9471,,
774,60.6632,,
775,60.3757,,
776,60.0860,,
777,59.7938,,
778,59.4993,,
779,59.2026,,
780,58.9036,,
781,58.6010,,
782,58.2987,,
783,57.9948,,
784,57.6896,,
785,57.3831,,
786,57.0755,,
787,56.7672,,
788,56.4581,,
789,56.1494,,
790,55.8394,,
791,55.5294,,
792,55.2193,,
793,54.9095,,
794,54.5999,,
795,54.2910,,
796,53.9826,,
797,53.6751,,
798,53.3688,,
799,53.0637,,
800,52.7598,,
801,52.4575,,
802,52.1568,,
803,51.8579,,
804,51.5609,,
805,51.2654,,
806,50.9727,,
807,50.6823,,
808,50.3939,,
809,50.1080,,
810,49.8254,,
811,49.5407,,
812,49.2642,,
813,48.9903,,
814,48.7196,,
815,48.4520,,
816,48.1877,,
817,47.9271,,
818,47.6699,,
819,47.4160,,
820,47.1661,,
821,46.9195,,
822,46.6770,,
823,46.4383,,
824,46.2034,,
825,45.9725,,
826,45.7455,,
827,45.5226,,
828,45.3036,,
829,45.0888,,
830,44.8781,,
831,44.6715,,
832,44.4691,,
833,44.2708,,
834,44.0768,,
835,43.8870,,
836,43.7013,,
837,43.5197,,
838,43.3420,,
839,43.1691,,
840,43.0003,,
841,42.8358,,
842,42.6737,,
843,42.5176,,
844,42.3655,,
845,42.2176,,
846,42.0733,,
847,41.9334,,
848,41.7975,,
849,41.6654,,
850,41.5373,,
851,41.4128,,
852,41.2923,,
853,41.1766,,
854,41.0636,,
855,40.9541,,
856,40.8483,,
857,40.7459,,
858,40.6470,,
859,40.5507,,
860,40.4585,,
861,40.3695,,
862,40.2834,,
863,40.1999,,
864,40.1202,,
865,40.0432,,
866,39.9692,,
867,39.8980,,
868,39.8294,,
869,39.7633,,
870,39.6992,,
871,39.6380,,
872,39.5792,,
873,39.5226,,
874,39.4682,,
875,39.4158,,
876,39.3654,,
877,39.3168,,
878,39.2700,,
879,39.2248,,
880,39.1810,,
881,39.1383,,
882,39.0976,,
883,39.0582,,
884,39.0200,,
885,38.9829,,
886,38.9465,,
887,38.9113,,
888,38.8769,,
889,38.8432,,
890,38.8102,,
891,38.7773,,
892,38.7450,,
893,38.7133,,
894,38.6818,,
895,38.6505,,
896,38.6193,,
897,38.5878,,
898,38.5565,,
899,38.5250,,
900,38.4932,,
901,38.4610,,
902,38.4284,,
903,38.3943,,
904,38.3606,,
905,38.3236,,
906,38.2886,,
907,38.2528,,
908,38.2159,,
909,38.1782,,
910,38.1394,,
911,38.0994,,
912,38.0582,,
913,38.0150,,
914,37.9712,,
915,37.9261,,
916,37.8795,,
917,37.8314,,
918,37.7817,,
919,37.7300,,
920,37.6767,,
921,37.6220,,
922,37.5656,,
923,37.5070,,
924,37.4462,,
925,37.3841,,
926,37.3201,,
927,37.2541,,
928,37.1859,,
929,37.1158,,
930,37.0437,,
931,36.9694,,
932,36.8930,,
933,36.8144,,
934,36.7331,,
935,36.6501,,
936,36.5649,,
937,36.4768,,
938,36.3872,,
939,36.2953,,
940,36.2011,,
941,36.1044,,
942,36.0044,,
943,35.9035,,
944,35.8003,,
945,35.6948,,
946,35.5870,,
947,35.4766,,
948,35.3643,,
949,35.2497,,
950,35.1329,,
951,35.0138,,
952,34.8925,,
953,34.7687,,
954,34.6431,,
955,34.5152,,
956,34.3853,,
957,34.2532,,
958,34.1190,,
959,33.9827,,
960,33.8415,,
961,33.7011,,
962,33.5591,,
963,33.4151,,
964,33.2692,,
965,33.1213,,
966,32.9717,,
967,32.8202,,
968,32.6670,,
969,32.5120,,
970,32.3554,,
971,32.1971,,
972,32.0350,,
973,31.8733,,
974,31.7105,,
975,31.5462,,
976,31.3805,,
977,31.2134,,
978,31.0449,,
979,30.8752,,
980,30.7042,,
981,30.5320,,
982,30.3586,,
983,30.1842,,
984,30.0087,,
985,29.8322,,
986,29.6547,,
987,29.4764,,
988,29.2972,,
989,29.1169,,
990,28.9361,,
991,28.7542,,
992,28.5721,,
993,28.3894,,
994,28.2061,,
995,28.0218,,
996,27.8376,,
997,27.6529,,
998,27.4677,,
999,27.2823,,
1000,27.0967,,
1001,26.9109,,
1002,26.7249,,
1003,26.5387,,
1004,26.3524,,
1005,26.1660,,
1006,25.9796,,
1007,25.7932,,
1008,25.6069,,
1009,25.4207,,
1010,25.2347,,
1011,25.0485,,
1012,24.8629,,
1013,24.6775,,
1014,24.4920,,
1015,24.3073,,
1016,24.1229,,
1017,23.9385,,
1018,23.7550,,
1019,23.5719,,
1020,23.3893,,
1021,23.2072,,
1022,23.0253,,
1023,22.8438,,
1024,22.6635,,
1025,22.4838,,
1026,22.3048,,
1027,22.1265,,
1028,21.9488,,
1029,21.7715,,
1030,21.5954,,
1031,21.4200,,
1032,21.2454,,
1033,21.0717,,
1034,20.8987,,
1035,20.7266,,
1036,20.5553,,
1037,20.3850,,
1038,20.2155,,
1039,20.0461,,
1040,19.8785,,
1041,19.7115,,
1042,19.5454,,
1043,19.3802,,
1044,19.2164,,
1045,19.0537,,
1046,18.8919,,
1047,18.7311,,
1048,18.5713,,
1049,18.4125,,
1050,18.2547,,
1051,18.0980,,
1052,17.9422,,
1053,17.7875,,
1054,17.6338,,
1055,17.4811,,
1056,17.3295,,
1057,17.1789,,
1058,17.0294,,
1059,16.8809,,
1060,16.7330,,
1061,16.5866,,
1062,16.4412,,
1063,16.2969,,
1064,16.1536,,
1065,16.0114,,
1066,15.8702,,
1067,15.7300,,
1068,15.5904,,
1069,15.4523,,
1070,15.3153,,
1071,15.1792,,
1072,15.0442,,
1073,14.9102,,
1074,14.7772,,
1075,14.6452,,
1076,14.5142,,
1077,14.3842,,
1078,14.2552,,
1079,14.1272,,
1080,14.0001,,
1081,13.8740,,
1082,13.7489,,
1083,13.6248,,
1084,13.5016,,
1085,13.3793,,
1086,13.2580,,
1087,13.1371,,
1088,13.0177,,
1089,12.8988,,
1090,12.7812,,
1091,12.6646,,
1092,12.5489,,
1093,12.4340,,
1094,12.3194,,
1095,12.2064,,
1096,12.0942,,
1097,11.9829,,
1098,11.8725,,
1099,11.7629,,
1100,11.6542,,
1101,11.5463,,
1102,11.4392,,
1103,11.3330,,
1104,11.2275,,
1105,11.1229,,
1106,11.0191,,
1107,10.9161,,
1108,10.8139,,
1109,10.7125,,
1110,10.6118,,
1111,10.5120,,
1112,10.4129,,
1113,10.3145,,
1114,10.2165,,
1115,10.1192,,
1116,10.0232,,
1117,9.9279,,
1118,9.8329,,
1119,9.7391,,
1120,9.6459,,
1121,9.5535,,
1122,9.4618,,
1123,9.3708,,
1124,9.2805,,
1125,9.1908,,
1126,9.1019,,
1127,9.0136,,
1128,8.9259,,
1129,8.8390,,
1130,8.7527,,
1131,8.6670,,
1132,8.5820,,
1133,8.4977,,
1134,8.4140,,
1135,8.3309,,
1136,8.2484,,
1137,8.1666,,
1138,8.0854,,
1139,8.0047,,
1140,7.9247,,
1141,7.8453,,
1142,7.7665,,
1143,7.6883,,
1144,7.6106,,
1145,7.5336,,
1146,7.4571,,
1147,7.3812,,
1148,7.3044,,
1149,7.2297,,
1150,7.1544,,
1151,7.0809,,
1152,7.0079,,
1153,6.9355,,
1154,6.8635,,
1155,6.7921,,
1156,6.7213,,
1157,6.6509,,
1158,6.5810,,
1159,6.5117,,
1160,6.4429,,
1161,6.3745,,
1162,6.3067,,
1163,6.2393,,
1164,6.1725,,
1165,6.1061,,
1166,6.0402,,
1167,5.9748,,
1168,5.9098,,
1169,5.8454,,
1170,5.7807,,
1171,5.7172,,
1172,5.6541,,
1173,5.5915,,
1174,5.5293,,
1175,5.4666,,
1176,5.4054,,
1177,5.3447,,
1178,5.2843,,
1179,5.2244,,
1180,5.1649,,
1181,5.1059,,
1182,5.0472,,
1183,4.9890,,
1184,4.9312,,
1185,4.8738,,
1186,4.8168,,
1187,4.7602,,
1188,4.7040,,
1189,4.6482,,
1190,4.5928,,
1191,4.5378,,
1192,4.4832,,
1193,4.4290,,
1194,4.3739,,
1195,4.3200,,
1196,4.2671,,
1197,4.2145,,
1198,4.1623,,
1199,4.1105,,
1200,4.0591,,
1201,4.0080,,
1202,3.9573,,
1203,3.9070,,
1204,3.8570,,
1205,3.8074,,
1206,3.7582,,
1207,3.7093,,
1208,3.6608,,
1209,3.6127,,
1210,3.5643,,
1211,3.5169,,
1212,3.4699,,
1213,3.4232,,
1214,3.3769,,
1215,3.3303,,
1216,3.2847,,
1217,3.2395,,
1218,3.1946,,
1219,3.1501,,
1220,3.1059,,
1221,3.0621,,
1222,3.0186,,
1223,2.9755,,
1224,2.9328,,
1225,2.8903,,
1226,2.8483,,
1227,2.8066,,
1228,2.7652,,
1229,2.7242,,
1230,2.6835,,
1231,2.6432,,
1232,2.6033,,
1233,2.5629,,
1234,2.5237,,
1235,2.4848,,
1236,2.4463,,
1237,2.4082,,
1238,2.3703,,
1239,2.3329,,
1240,2.2957,,
1241,2.2590,,
1242,2.2226,,
1243,2.1865,,
1244,2.1508,,
1245,2.1154,,
1246,2.0804,,
1247,2.0447,,
1248,2.0104,,
1249,1.9765,,
1250,1.9430,,
1251,1.9098,,
1252,1.8769,,
1253,1.8444,,
1254,1.8123,,
1255,1.7804,,
1256,1.7490,,
1257,1.7179,,
1258,1.6861,,
1259,1.6557,,
1260,1.6257,,
1261,1.5961,,
1262,1.5668,,
1263,1.5378,,
1264,1.5092,,
1265,1.4809,,
1266,1.4530,,
1267,1.4254,,
1268,1.3982,,
1269,1.3713,,
1270,1.3447,,
1271,1.3185,,
1272,1.2926,,
1273,1.2671,,
1274,1.2419,,
1275,1.2171,,
1276,1.1926,,
1277,1.1684,,
1278,1.1446,,
1279,1.1211,,
1280,1.0979,,
1281,1.0751,,
1282,1.0526,,
1283,1.0304,,
1284,1.0086,,
1285,0.9870,,
1286,0.9658,,
1287,0.9450,,
1288,0.9244,,
1289,0.9042,,
1290,0.8843,,
1291,0.8647,,
1292,0.8454,,
1293,0.8265,,
1294,0.8078,,
1295,0.7895,,
1296,0.7714,,
1297,0.7537,,
1298,0.7363,,
1299,0.7191,,
1300,0.7023,,
1301,0.6857,,
1302,0.6695,,
1303,0.6535,,
1304,0.6379,,
1305,0.6225,,
1306,0.6074,,
1307,0.5925,,
1308,0.5780,,
1309,0.5637,,
1310,0.5497,,
1311,0.5360,,
1312,0.5225,,
1313,0.5093,,
1314,0.4963,,
1315,0.4836,,
1316,0.4712,,
1317,0.4590,,
1318,0.4471,,
1319,0.4354,,
1320,0.4239,,
1321,0.4120,,
1322,0.4011,,
1323,0.3904,,
1324,0.3799,,
1325,0.3696,,
1326,0.3596,,
1327,0.3498,,
1328,0.3402,,
1329,0.3308,,
1330,0.3216,,
1331,0.3126,,
1332,0.3038,,
1333,0.2953,,
1334,0.2858,,
1335,0.2776,,
1336,0.2697,,
1337,0.2619,,
1338,0.2544,,
1339,0.2470,,
1340,0.2398,,
1341,0.2327,,
1342,0.2259,,
1343,0.2192,,
1344,0.2126,,
1345,0.2063,,
1346,0.2000,,
1347,0.1940,,
1348,0.1881,,
1349,0.1823,,
1350,0.1767,,
1351,0.1713,,
1352,0.1659,,
1353,0.1608,,
1354,0.1557,,
1355,0.1508,,
1356,0.1460,,
1357,0.1414,,
1358,0.1368,,
1359,0.1324,,
1360,0.1282,,
1361,0.1240,,
1362,0.1200,,
1363,0.1160,,
1364,0.1113,,
1365,0.1076,,
1366,0.1041,,
1367,0.1006,,
1368,0.0973,,
1369,0.0940,,
1370,0.0908,,
1371,0.0877,,
1372,0.0847,,
1373,0.0818,,
1374,0.0790,,
1375,0.0763,,
1376,0.0737,,
1377,0.0711,,
1378,0.0686,,
1379,0.0662,,
1380,0.0638,,
1381,0.0616,,
1382,0.0594,,
1383,0.0573,,
1384,0.0552,,
1385,0.0532,,
1386,0.0513,,
1387,0.0494,,
1388,0.0476,,
1389,0.0458,,
1390,0.0441,,
1391,0.0425,,
1392,0.0409,,
1393,0.0394,,
1394,0.0379,,
1395,0.0365,,
1396,0.0351,,
1397,0.0338,,
1398,0.0325,,
1399,0.0312,,
1400,0.0300,,
1401,0.0289,,
1402,0.0277,,
1403,0.0267,,
1404,0.0256,,
1405,0.0246,,
1406,0.0236,,
1407,0.0227,,
1408,0.0218,,
1409,0.0209,,
1410,0.0201,,
1411,0.0193,,
1412,0.0185,,
1413,0.0177,,
1414,0.0170,,
1415,0.0163,,
1416,0.0156,,
1417,0.0150,,
1418,0.0144,,
1419,0.0138,,
1420,0.0132,,
1421,0.0127,,
1422,0.0121,,
1423,0.0116,,
1424,0.0111,,
1425,0.0106,,
1426,0.0102,,
1427,0.0098,,
1428,0.0093,,
1429,0.0089,,
1430,0.0085,,
1431,0.0082,,
1432,0.0078,,
1433,0.0075,,
1434,0.0071,,
1435,0.0068,,
1436,0.0065,,
1437,0.0062,,
1438,0.0060,,
1439,0.0057,,
1440,0.0054,,
1441,0.0052,,
1442,0.0050,,
1443,0.0047,,
1444,0.0045,,
1445,0.0043,,
1446,0.0041,,
1447,0.0039,,
1448,0.0037,,
1449,0.0036,,
1450,0.0034,,
1451,0.0032,,
1452,0.0031,,
1453,0.0029,,
1454,0.0028,,
1455,0.0027,,
1456,0.0025,,
1457,0.0024,,
1458,0.0023,,
1459,0.0022,,
1460,0.0021,,
1461,0.0020,,
1462,0.0019,,
1463,0.0018,,
1464,0.0017,,
1465,0.0016,,
1466,0.0016,,
1467,0.0015,,
1468,0.0014,,
1469,0.0013,,
1470,0.0013,,
1471,0.0012,,
1472,0.0011,,
1473,0.0011,,
1474,0.0000,,
1475,0.0000,,
1476,0.0000,,
1477,0.0000,,
1478,0.0000,,
1479,0.0000,,
1480,0.0000,,
1481,0.0000,,
1482,0.0000,,
1483,0.0000,,
1484,0.0000,,
1485,0.0000,,
1486,0.0000,,
1487,0.0000,,
1488,0.0000,,
1489,0.0000,,
1490,0.0000,,
1491,0.0000,,
1492,0.0000,,
1493,0.0000,,
1494,0.0000,,
1495,0.0000,,
1496,0.0000,,
1497,0.0000,,
1498,0.0000,,
1499,0.0000,,
1500,0.0000,,
1501,0.0000,,
1502,0.0000,,
1503,0.0000,,
1504,0.0000,,
1505,0.0000,,
1506,0.0000,,
1507,0.0000,,
1508,0.0000,,
1509,0.0000,,
1510,0.0000,,
1511,0.0000,,
1512,0.0000,,
1513,0.0000,,
1514,0.0000,,
1515,0.0000,,
1516,0.0000,,
1517,0.0000,,
1518,0.0000,,
1519,0.0000,,
1520,0.0000,,
1521,0.0000,,
1522,0.0000,,
1523,0.0000,,
1524,0.0000,,
1525,0.0000,,
1526,0.0000,,
1527,0.0000,,
1528,0.0000,,
1529,0.0000,,
1530,0.0000,,
1531,0.0000,,
1532,0.0000,,
1533,0.0000,,
1534,0.0000,,
1535,0.0000,,
1536,0.0000,,
1537,0.0000,,
1538,0.0000,,
1539,0.0000,,
1540,0.0000,,
1541,0.0000,,
1542,0.0000,,
1543,0.0000,,
1544,0.0000,,
1545,0.0000,,
1546,0.0000,,
1547,0.0000,,
1548,0.0000,,
1549,0.0000,,
1550,0.0000,,
1551,0.0000,,
1552,0.0000,,
1553,0.0000,,
1554,0.0000,,
1555,0.0000,,
1556,0.0000,,
1557,0.0000,,
1558,0.0000,,
1559,0.0000,,
1560,0.0000,,
1561,0.0000,,
1562,0.0000,,
1563,0.0000,,
1564,0.0000,,
1565,0.0000,,
1566,0.0000,,
1567,0.0000,,
1568,0.0000,,
1569,0.0000,,
1570,0.0000,,
1571,0.0000,,
1572,0.0000,,
1573,0.0000,,
1574,0.0000,,
1575,0.0000,,
1576,0.0000,,
1577,0.0000,,
1578,0.0000,,
1579,0.0000,,
1580,0.0000,,
1581,0.0000,,
1582,0.0000,,
1583,0.0000,,
1584,0.0000,,
1585,0.0000,,
1586,0.0000,,
1587,0.0000,,
1588,0.0000,,
1589,0.0000,,
1590,0.0000,,
1591,0.0000,,
1592,0.0000,,
1593,0.0000,,
1594,0.0000,,
1595,0.0000,,
1596,0.0000,,
1597,0.0000,,
1598,0.0000,,
1599,0.0000,,
1600,0.0000,,
1601,0.0000,,
1602,0.0000,,
1603,0.0000,,
1604,0.0000,,
1605,0.0000,,
1606,0.0000,,
1607,0.0000,,
1608,0.0000,,
1609,0.0000,,
1610,0.0000,,
1611,0.0000,,
1612,0.0000,,
1613,0.0000,,
1614,0.0000,,
1615,0.0000,,
1616,0.0000,,
1617,0.0000,,
1618,0.0000,,
1619,0.0000,,
1620,0.0000,,
1621,0.0000,,
1622,0.0000,,
1623,0.0000,,
1624,0.0000,,
1625,0.0000,,
1626,0.0000,,
1627,0.0000,,
1628,0.0000,,
1629,0.0000,,
1630,0.0000,,
1631,0.0000,,
1632,0.0000,,
1633,0.0000,,
1634,0.0000,,
1635,0.0000,,
1636,0.0000,,
1637,0.0000,,
1638,0.0000,,
1639,0.0000,,
1640,0.0000,,
1641,0.0000,,
1642,0.0000,,
1643,0.0000,,
1644,0.0000,,
1645,0.0000,,
1646,0.0000,,
1647,0.0000,,
1648,0.0000,,
1649,0.0000,,
1650,0.0000,,
1651,0.0000,,
1652,0.0000,,
1653,0.0000,,
1654,0.0000,,
1655,0.0000,,
1656,0.0000,,
1657,0.0000,,
1658,0.0000,,
1659,0.0000,,
1660,0.0000,,
1661,0.0000,,
1662,0.0000,,
1663,0.0000,,
1664,0.0000,,
1665,0.0000,,
1666,0.0000,,
1667,0.0000,,
1668,0.0000,,
1669,0.0000,,
1670,0.0000,,
1671,0.0000,,
1672,0.0000,,
1673,0.0000,,
1674,0.0000,,
1675,0.0000,,
1676,0.0000,,
1677,0.0000,,
1678,0.0000,,
1679,0.0000,,
1680,0.0000,,
1681,0.0000,,
1682,0.0000,,
1683,0.0000,,
1684,0.0000,,
1685,0.0000,,
1686,0.0000,,
1687,0.0000,,
1688,0.0000,,
1689,0.0000,,
1690,0.0000,,
1691,0.0000,,
1692,0.0000,,
1693,0.0000,,
1694,0.0000,,
1695,0.0000,,
1696,0.0000,,
1697,0.0000,,
1698,0.0000,,
1699,0.0000,,
1700,0.0000,,
1701,0.0000,,
1702,0.0000,,
1703,0.0000,,
1704,0.0000,,
1705,0.0000,,
1706,0.0000,,
1707,0.0000,,
1708,0.0000,,
1709,0.0000,,
1710,0.0000,,
1711,0.0000,,
1712,0.0000,,
1713,0.0000,,
1714,0.0000,,
1715,0.0000,,
1716,0.0000,,
1717,0.0000,,
1718,0.0000,,
1719,0.0000,,
1720,0.0000,,
1721,0.0000,,
1722,0.0000,,
1723,0.0000,,
1724,0.0000,,
1725,0.0000,,
1726,0.0000,,
1727,0.0000,,
1728,0.0000,,
1729,0.0000,,
1730,0.0000,,
1731,0.0000,,
1732,0.0000,,
1733,0.0000,,
1734,0.0000,,
1735,0.0000,,
1736,0.0000,,
1737,0.0000,,
1738,0.0000,,
1739,0.0000,,
1740,0.0000,,
1741,0.0000,,
1742,0.0000,,
1743,0.0000,,
1744,0.0000,,
1745,0.0000,,
1746,0.0000,,
1747,0.0000,,
1748,0.0000,,
1749,0.0000,,
1750,0.0000,,
1751,0.0000,,
1752,0.0000,,
1753,0.0000,,
1754,0.0000,,
1755,0.0000,,
1756,0.0000,,
1757,0.0000,,
1758,0.0000,,
1759,0.0000,,
1760,0.0000,,
1761,0.0000,,
1762,0.0000,,
1763,0.0000,,
1764,0.0000,,
1765,0.0000,,
1766,0.0000,,
1767,0.0000,,
1768,0.0000,,
1769,0.0000,,
1770,0.0000,,
1771,0.0000,,
1772,0.0000,,
1773,0.0000,,
1774,0.0000,,
1775,0.0000,,
1776,0.0000,,
1777,0.0000,,
1778,0.0000,,
1779,0.0000,,
1780,0.0000,,
1781,0.0000,,
1782,0.0000,,
1783,0.0000,,
1784,0.0000,,
1785,0.0000,,
1786,0.0000,,
1787,0.0000,,
1788,0.0000,,
1789,0.0000,,
1790,0.0000,,
1791,0.0000,,
1792,0.0000,,
1793,0.0000,,
1794,0.0000,,
1795,0.0000,,
1796,0.0000,,
1797,0.0000,,
1798,0.0000,,
1799,0.0000,,
1800,0.0000,,
1801,0.0000,,
1802,0.0000,,
1803,0.0000,,
1804,0.0000,,
1805,0.0000,,
1806,0.0000,,
1807,0.0000,,
1808,0.0000,,
1809,0.0000,,
1810,0.0000,,
1811,0.0000,,
1812,0.0000,,
1813,0.0000,,
1814,0.0000,,
1815,0.0000,,
1816,0.0000,,
1817,0.0000,,
1818,0.0000,,
1819,0.0000,,
1820,0.0000,,
1821,0.0000,,
1822,0.0000,,
1823,0.0000,,
1824,0.0000,,
1825,0.0000,,
1826,0.0000,,
1827,0.0000,,
1828,0.0000,,
1829,0.0000,,
1830,0.0000,,
1831,0.0000,,
1832,0.0000,,
1833,0.0000,,
1834,0.0000,,
1835,0.0000,,
1836,0.0000,,
1837,0.0000,,
1838,0.0000,,
1839,0.0000,,
1840,0.0000,,
1841,0.0000,,
1842,0.0000,,
1843,0.0000,,
1844,0.0000,,
1845,0.0000,,
1846,0.0000,,
1847,0.0000,,
1848,0.0000,,
1849,0.0000,,
1850,0.0000,,
1851,0.0000,,
1852,0.0000,,
1853,0.0000,,
1854,0.0000,,
1855,0.0000,,
1856,0.0000,,
1857,0.0000,,
1858,0.0000,,
1859,0.0000,,
1860,0.0000,,
1861,0.0000,,
1862,0.0000,,
1863,0.0000,,
1864,0.0000,,
1865,0.0000,,
1866,0.0000,,
1867,0.0000,,
1868,0.0000,,
1869,0.0000,,
1870,0.0000,,
1871,0.0000,,
1872,0.0000,,
1873,0.0000,,
1874,0.0000,,
1875,0.0000,,
1876,0.0000,,
1877,0.0000,,
1878,0.0000,,
1879,0.0000,,
1880,0.0000,,
1881,0.0000,,
1882,0.0000,,
1883,0.0000,,
1884,0.0000,,
1885,0.0000,,
1886,0.0000,,
1887,0.0000,,
1888,0.0000,,
1889,0.0000,,
1890,0.0000,,
1891,0.0000,,
1892,0.0000,,
1893,0.0000,,
1894,0.0000,,
1895,0.0000,,
1896,0.0000,,
1897,0.0000,,
1898,0.0000,,
1899,0.0000,,
1900,0.0000,,
1901,0.0000,,
1902,0.0000,,
1903,0.0000,,
1904,0.0000,,
1905,0.0000,,
1906,0.0000,,
1907,0.0000,,
1908,0.0000,,
1909,0.0000,,
1910,0.0000,,
1911,0.0000,,
1912,0.0000,,
1913,0.0000,,
1914,0.0000,,
1915,0.0000,,
1916,0.0000,,
1917,0.0000,,
1918,0.0000,,
1919,0.0000,,
1920,0.0000,,
1921,0.0000,,
1922,0.0000,,
1923,0.0000,,
1924,0.0000,,
1925,0.0000,,
1926,0.0000,,
1927,0.0000,,
1928,0.0000,,
1929,0.0000,,
1930,0.0000,,
1931,0.0000,,
1932,0.0000,,
1933,0.0000,,
1934,0.0000,,
1935,0.0000,,
1936,0.0000,,
1937,0.0000,,
1938,0.0000,,
1939,0.0000,,
1940,0.0000,,
1941,0.0000,,
1942,0.0000,,
1943,0.0000,,
1944,0.0000,,
1945,0.0000,,
1946,0.0000,,
1947,0.0000,,
1948,0.0000,,
1949,0.0000,,
1950,0.0000,,
1951,0.0000,,
1952,0.0000,,
1953,0.0000,,
1954,0.0000,,
1955,0.0000,,
1956,0.0000,,
1957,0.0000,,
1958,0.0000,,
1959,0.0000,,
1960,0.0000,,
1961,0.0000,,
1962,0.0000,,
1963,0.0000,,
1964,0.0000,,
1965,0.0000,,
1966,0.0000,,
1967,0.0000,,
1968,0.0000,,
1969,0.0000,,
1970,0.0000,,
1971,0.0000,,
1972,0.0000,,
1973,0.0000,,
1974,0.0000,,
1975,0.0000,,
1976,0.0000,,
1977,0.0000,,
1978,0.0000,,
1979,0.0000,,
1980,0.0000,,
1981,0.0000,,
1982,0.0000,,
1983,0.0000,,
1984,0.0000,,
1985,0.0000,,
1986,0.0000,,
1987,0.0000,,
1988,0.0000,,
1989,0.0000,,
1990,0.0000,,
1991,0.0000,,
1992,0.0000,,
1993,0.0000,,
1994,0.0000,,
1995,0.0000,,
1996,0.0000,,
1997,0.0000,,
1998,0.0000,,
1999,0.0000,,

[Histogram Data]
Binwidth,4
Particle Size (nm),Volume Concentration (E12 nm³ / ml),,
2.0,0.0000,,
6.0,0.0000,,
10.0,0.0000,,
14.0,0.0000,,
18.0,0.0000,,
22.0,0.0000,,
26.0,0.0000,,
30.0,0.0000,,
34.0,0.0000,,
38.0,0.0000,,
42.0,0.0000,,
46.0,0.0000,,
50.0,0.0000,,
54.0,0.0000,,
58.0,0.0000,,
62.0,0.0000,,
66.0,0.0000,,
70.0,0.0177,,
74.0,0.0000,,
78.0,0.0245,,
82.0,0.0274,,
86.0,0.1412,,
90.0,0.2663,,
94.0,0.1241,,
98.0,0.2318,,
102.0,0.5497,,
106.0,0.5438,,
110.0,0.6893,,
114.0,2.2412,,
118.0,2.4931,,
122.0,3.9845,,
126.0,3.1826,,
130.0,4.6183,,
134.0,3.4850,,
138.0,5.7429,,
142.0,6.7307,,
146.0,8.2081,,
150.0,9.4492,,
154.0,9.9836,,
158.0,14.9069,,
162.0,16.3224,,
166.0,19.7042,,
170.0,19.8372,,
174.0,28.7211,,
178.0,20.9440,,
182.0,34.8098,,
186.0,25.1443,,
190.0,37.2816,,
194.0,32.6700,,
198.0,36.2005,,
202.0,40.0995,,
206.0,47.0690,,
210.0,47.0456,,
214.0,63.4124,,
218.0,48.6065,,
222.0,58.7588,,
226.0,53.3584,,
230.0,63.6697,,
234.0,64.7718,,
238.0,67.0473,,
242.0,95.4709,,
246.0,87.8371,,
250.0,120.7506,,
254.0,102.7884,,
258.0,94.5049,,
262.0,57.9017,,
266.0,90.5903,,
270.0,107.2953,,
274.0,134.4033,,
278.0,135.9190,,
282.0,182.9083,,
286.0,109.1175,,
290.0,150.0011,,
294.0,166.1073,,
298.0,134.1052,,
302.0,202.0074,,
306.0,225.9633,,
310.0,155.3116,,
314.0,168.1445,,
318.0,214.9872,,
322.0,230.9138,,
326.0,216.8620,,
330.0,279.5075,,
334.0,187.6231,,
338.0,204.3312,,
342.0,252.8584,,
346.0,350.0367,,
350.0,298.7292,,
354.0,384.2749,,
358.0,337.5980,,
362.0,233.1432,,
366.0,442.5984,,
370.0,290.5310,,
374.0,438.5473,,
378.0,399.8576,,
382.0,336.9816,,
386.0,393.0786,,
390.0,284.5311,,
394.0,402.6996,,
398.0,338.2311,,
402.0,354.9628,,
406.0,363.9941,,
410.0,273.9070,,
414.0,710.0266,,
418.0,565.5614,,
422.0,158.6391,,
426.0,479.8895,,
430.0,591.9915,,
434.0,516.0408,,
438.0,347.4546,,
442.0,453.8731,,
446.0,288.1482,,
450.0,444.7137,,
454.0,635.8597,,
458.0,587.5250,,
462.0,479.5891,,
466.0,347.6885,,
470.0,1194.2775,,
474.0,783.3965,,
478.0,404.0042,,
482.0,591.6168,,
486.0,292.3544,,
490.0,1137.6048,,
494.0,481.0942,,
498.0,649.0824,,
502.0,767.9344,,
506.0,444.7252,,
510.0,1096.0937,,
514.0,498.4192,,
518.0,751.1744,,
522.0,165.6700,,
526.0,483.8055,,
530.0,838.7907,,
534.0,159.6276,,
538.0,803.2776,,
542.0,691.2681,,
546.0,402.4053,,
550.0,779.0458,,
554.0,565.9175,,
558.0,329.4359,,
562.0,1123.3341,,
566.0,521.3585,,
570.0,525.6361,,
574.0,615.2915,,
578.0,131.0178,,
582.0,844.1863,,
586.0,630.2116,,
590.0,429.8859,,
594.0,478.7580,,
598.0,496.7816,,
602.0,146.9542,,
606.0,488.4416,,
610.0,448.2213,,
614.0,142.8139,,
618.0,585.4817,,
622.0,51.4927,,
626.0,104.2651,,
630.0,189.2891,,
634.0,176.5520,,
638.0,367.8586,,
642.0,1911.5911,,
646.0,293.6647,,
650.0,118.6357,,
654.0,0.0000,,
658.0,0.0000,,
662.0,254.3856,,
666.0,672.2404,,
670.0,73.5134,,
674.0,0.0000,,
678.0,218.0298,,
682.0,374.5587,,
686.0,278.4868,,
690.0,0.0000,,
694.0,288.9928,,
698.0,90.0230,,
702.0,123.2757,,
706.0,102.5789,,
710.0,79.1515,,
714.0,1343.8139,,
718.0,81.8631,,
722.0,325.4000,,
726.0,236.0454,,
730.0,337.3599,,
734.0,95.4226,,
738.0,501.4741,,
742.0,627.4038,,
746.0,118.3065,,
750.0,0.0000,,
754.0,107.7647,,
758.0,1324.0636,,
762.0,0.0000,,
766.0,841.5309,,
770.0,146.9260,,
774.0,0.0000,,
778.0,0.0000,,
782.0,314.1632,,
786.0,349.0091,,
790.0,0.0000,,
794.0,0.0000,,
798.0,113.3090,,
802.0,322.9397,,
806.0,398.8774,,
810.0,0.0000,,
814.0,157.3567,,
818.0,0.0000,,
822.0,864.6845,,
826.0,0.0000,,
830.0,0.0000,,
834.0,0.0000,,
838.0,195.4019,,
842.0,200.3486,,
846.0,0.0000,,
850.0,0.0000,,
854.0,0.0000,,
858.0,442.3756,,
862.0,319.1539,,
866.0,0.0000,,
870.0,0.0000,,
874.0,0.0000,,
878.0,165.1718,,
882.0,394.8489,,
886.0,0.0000,,
890.0,0.0000,,
894.0,0.0000,,
898.0,0.0000,,
902.0,0.0000,,
906.0,1222.5973,,
910.0,0.0000,,
914.0,0.0000,,
918.0,0.0000,,
922.0,326.6718,,
926.0,476.2236,,
930.0,0.0000,,
934.0,0.0000,,
938.0,0.0000,,
942.0,898.5837,,
946.0,0.0000,,
950.0,0.0000,,
954.0,300.0462,,
958.0,303.8302,,
962.0,0.0000,,
966.0,0.0000,,
970.0,0.0000,,
974.0,363.9901,,
978.0,0.0000,,
982.0,0.0000,,
986.0,540.5704,,
990.0,0.0000,,
994.0,525.7710,,
998.0,0.0000,,
1002.0,0.0000,,
1006.0,0.0000,,
1010.0,0.0000,,
1014.0,0.0000,,
1018.0,0.0000,,
1022.0,0.0000,,
1026.0,0.0000,,
1030.0,0.0000,,
1034.0,0.0000,,
1038.0,0.0000,,
1042.0,355.3096,,
1046.0,0.0000,,
1050.0,0.0000,,
1054.0,591.4128,,
1058.0,0.0000,,
1062.0,0.0000,,
1066.0,0.0000,,
1070.0,0.0000,,
1074.0,0.0000,,
1078.0,504.7998,,
1082.0,0.0000,,
1086.0,0.0000,,
1090.0,0.0000,,
1094.0,0.0000,,
1098.0,0.0000,,
1102.0,0.0000,,
1106.0,0.0000,,
1110.0,0.0000,,
1114.0,0.0000,,
1118.0,0.0000,,
1122.0,0.0000,,
1126.0,0.0000,,
1130.0,0.0000,,
1134.0,0.0000,,
1138.0,0.0000,,
1142.0,0.0000,,
1146.0,0.0000,,
1150.0,0.0000,,
1154.0,0.0000,,
1158.0,0.0000,,
1162.0,621.4138,,
1166.0,0.0000,,
1170.0,0.0000,,
1174.0,0.0000,,
1178.0,0.0000,,
1182.0,0.0000,,
1186.0,0.0000,,
1190.0,0.0000,,
1194.0,0.0000,,
1198.0,0.0000,,
1202.0,0.0000,,
1206.0,0.0000,,
1210.0,0.0000,,
1214.0,0.0000,,
1218.0,0.0000,,
1222.0,0.0000,,
1226.0,0.0000,,
1230.0,0.0000,,
1234.0,0.0000,,
1238.0,0.0000,,
1242.0,0.0000,,
1246.0,0.0000,,
1250.0,0.0000,,
1254.0,0.0000,,
1258.0,0.0000,,
1262.0,0.0000,,
1266.0,0.0000,,
1270.0,0.0000,,
1274.0,0.0000,,
1278.0,0.0000,,
1282.0,0.0000,,
1286.0,0.0000,,
1290.0,0.0000,,
1294.0,0.0000,,
1298.0,0.0000,,
1302.0,0.0000,,
1306.0,0.0000,,
1310.0,0.0000,,
1314.0,0.0000,,
1318.0,0.0000,,
1322.0,0.0000,,
1326.0,0.0000,,
1330.0,0.0000,,
1334.0,0.0000,,
1338.0,0.0000,,
1342.0,0.0000,,
1346.0,0.0000,,
1350.0,0.0000,,
1354.0,0.0000,,
1358.0,0.0000,,
1362.0,0.0000,,
1366.0,0.0000,,
1370.0,0.0000,,
1374.0,0.0000,,
1378.0,0.0000,,
1382.0,0.0000,,
1386.0,0.0000,,
1390.0,0.0000,,
1394.0,0.0000,,
1398.0,0.0000,,
1402.0,0.0000,,
1406.0,0.0000,,
1410.0,0.0000,,
1414.0,0.0000,,
1418.0,0.0000,,
1422.0,0.0000,,
1426.0,0.0000,,
1430.0,0.0000,,
1434.0,0.0000,,
1438.0,0.0000,,
1442.0,0.0000,,
1446.0,0.0000,,
1450.0,0.0000,,
1454.0,0.0000,,
1458.0,0.0000,,
1462.0,0.0000,,
1466.0,0.0000,,
1470.0,0.0000,,
1474.0,0.0000,,
1478.0,0.0000,,
1482.0,0.0000,,
1486.0,0.0000,,
1490.0,0.0000,,
1494.0,0.0000,,
1498.0,0.0000,,
1502.0,0.0000,,
1506.0,0.0000,,
1510.0,0.0000,,
1514.0,0.0000,,
1518.0,0.0000,,
1522.0,0.0000,,
1526.0,0.0000,,
1530.0,0.0000,,
1534.0,0.0000,,
1538.0,0.0000,,
1542.0,0.0000,,
1546.0,0.0000,,
1550.0,0.0000,,
1554.0,0.0000,,
1558.0,0.0000,,
1562.0,0.0000,,
1566.0,0.0000,,
1570.0,0.0000,,
1574.0,0.0000,,
1578.0,0.0000,,
1582.0,0.0000,,
1586.0,0.0000,,
1590.0,0.0000,,
1594.0,0.0000,,
1598.0,0.0000,,
1602.0,0.0000,,
1606.0,0.0000,,
1610.0,0.0000,,
1614.0,0.0000,,
1618.0,0.0000,,
1622.0,0.0000,,
1626.0,0.0000,,
1630.0,0.0000,,
1634.0,0.0000,,
1638.0,0.0000,,
1642.0,0.0000,,
1646.0,0.0000,,
1650.0,0.0000,,
1654.0,0.0000,,
1658.0,0.0000,,
1662.0,0.0000,,
1666.0,0.0000,,
1670.0,0.0000,,
1674.0,0.0000,,
1678.0,0.0000,,
1682.0,0.0000,,
1686.0,0.0000,,
1690.0,0.0000,,
1694.0,0.0000,,
1698.0,0.0000,,
1702.0,0.0000,,
1706.0,0.0000,,
1710.0,0.0000,,
1714.0,0.0000,,
1718.0,0.0000,,
1722.0,0.0000,,
1726.0,0.0000,,
1730.0,0.0000,,
1734.0,0.0000,,
1738.0,0.0000,,
1742.0,0.0000,,
1746.0,0.0000,,
1750.0,0.0000,,
1754.0,0.0000,,
1758.0,0.0000,,
1762.0,0.0000,,
1766.0,0.0000,,
1770.0,0.0000,,
1774.0,0.0000,,
1778.0,0.0000,,
1782.0,0.0000,,
1786.0,0.0000,,
1790.0,0.0000,,
1794.0,0.0000,,
1798.0,0.0000,,
1802.0,0.0000,,
1806.0,0.0000,,
1810.0,0.0000,,
1814.0,0.0000,,
1818.0,0.0000,,
1822.0,0.0000,,
1826.0,0.0000,,
1830.0,0.0000,,
1834.0,0.0000,,
1838.0,0.0000,,
1842.0,0.0000,,
1846.0,0.0000,,
1850.0,0.0000,,
1854.0,0.0000,,
1858.0,0.0000,,
1862.0,0.0000,,
1866.0,0.0000,,
1870.0,0.0000,,
1874.0,0.0000,,
1878.0,0.0000,,
1882.0,0.0000,,
1886.0,0.0000,,
1890.0,0.0000,,
1894.0,0.0000,,
1898.0,0.0000,,
1902.0,0.0000,,
1906.0,0.0000,,
1910.0,0.0000,,
1914.0,0.0000,,
1918.0,0.0000,,
1922.0,0.0000,,
1926.0,0.0000,,
1930.0,0.0000,,
1934.0,0.0000,,
1938.0,0.0000,,
1942.0,0.0000,,
1946.0,0.0000,,
1950.0,0.0000,,
1954.0,0.0000,,
1958.0,0.0000,,
1962.0,0.0000,,
1966.0,0.0000,,
1970.0,0.0000,,
1974.0,0.0000,,
1978.0,0.0000,,
1982.0,0.0000,,
1986.0,0.0000,,
1990.0,0.0000,,
1994.0,0.0000,,
1998.0,0.0000,,

[Percentile Undersize]
Percentile,Particle Size (nm) (Volume Weighted),
0,52,
1,219,
2,252,
3,274,
4,291,
5,305,
6,317,
7,328,
8,338,
9,347,
10,355,
11,362,
12,370,
13,377,
14,384,
15,390,
16,396,
17,403,
18,409,
19,414,
20,420,
21,426,
22,431,
23,436,
24,441,
25,446,
26,451,
27,455,
28,460,
29,464,
30,469,
31,473,
32,477,
33,481,
34,486,
35,490,
36,494,
37,498,
38,502,
39,506,
40,510,
41,514,
42,518,
43,523,
44,527,
45,531,
46,535,
47,540,
48,544,
49,548,
50,553,
51,558,
52,562,
53,567,
54,572,
55,577,
56,582,
57,587,
58,592,
59,598,
60,604,
61,610,
62,616,
63,623,
64,629,
65,636,
66,644,
67,651,
68,659,
69,667,
70,676,
71,684,
72,693,
73,702,
74,711,
75,720,
76,729,
77,738,
78,747,
79,757,
80,766,
81,777,
82,787,
83,799,
84,811,
85,824,
86,838,
87,853,
88,868,
89,884,
90,900,
91,917,
92,933,
93,951,
94,969,
95,990,
96,1013,
97,1041,
98,1079,
99,1135,
100,1473,

