[Software Info]
Build,NTA 2.3 build 0033

[Sample Information]
Operator,""
Sample Description,"coffee"
Diluent,"aqua dest."
Concentration,"1:19"
Pre-treatmeant,""
Comments,""

[Results Summary]
Total Frames,1800
Processed Frames,1800
Valid Tracks,2218
Overall Drift (nm/s),423.20
X-Drift (nm/s),-406.66
Y-Drift (nm/s),117.15
Calibration (nm/pixel),166

Size Data - Volume Weighted,
Mode (nm),358.00
Mean (nm),619.78
Standard Deviation (nm),348.13
Size data - Model Fit,
Mean (nm),0.00
Standard Deviation (nm),0.00

User Line 1,354
User Line 2,0
Average # centres/frame,57.79
Average # particles/frame,37.04
Equivalent particle concentration (E8 particles/ml),5.82
Selected average # particles/frame,0.00
Selected equivalent particle concentration (E8 particles/ml),0.00

[Settings],
Background Extract,On
Brightness,0
Gain,1.00
Blur Size,Auto,
Detection Threshold Type,Multi,
Detection Threshold,24
Min Track Length,Auto
Min Expected Size (nm),Auto

[Measurement Conditions]
Camera Type,CCD
Camera Shutter (ms),10.14
Camera Gain,499
Frame rate (fps),30.00
Temperature (°C),25.20
Viscosity (cP),0.885

[Warnings]
Low Completed Tracks,No
High Noise,3 frames
Auto max jump,Successful
Drift off,No
Settings Changed Whilst Processing,No
Vibration detected,Error - No data
Additional Errors,None

[Graph Data]
Particle Size (nm),Volume Concentration (E12 nm³ / ml),,
0,0.0000,,
1,0.0000,,
2,0.0000,,
3,0.0000,,
4,0.0000,,
5,0.0000,,
6,0.0000,,
7,0.0000,,
8,0.0000,,
9,0.0000,,
10,0.0000,,
11,0.0000,,
12,0.0000,,
13,0.0000,,
14,0.0000,,
15,0.0000,,
16,0.0000,,
17,0.0000,,
18,0.0000,,
19,0.0000,,
20,0.0000,,
21,0.0000,,
22,0.0000,,
23,0.0001,,
24,0.0003,,
25,0.0005,,
26,0.0009,,
27,0.0014,,
28,0.0021,,
29,0.0031,,
30,0.0045,,
31,0.0064,,
32,0.0090,,
33,0.0122,,
34,0.0161,,
35,0.0204,,
36,0.0252,,
37,0.0305,,
38,0.0365,,
39,0.0433,,
40,0.0508,,
41,0.0587,,
42,0.0668,,
43,0.0749,,
44,0.0832,,
45,0.0920,,
46,0.1018,,
47,0.1131,,
48,0.1261,,
49,0.1411,,
50,0.1581,,
51,0.1767,,
52,0.1968,,
53,0.2177,,
54,0.2391,,
55,0.2607,,
56,0.2821,,
57,0.3036,,
58,0.3256,,
59,0.3487,,
60,0.3735,,
61,0.4006,,
62,0.4304,,
63,0.4631,,
64,0.4985,,
65,0.5364,,
66,0.5762,,
67,0.6172,,
68,0.6588,,
69,0.7003,,
70,0.7411,,
71,0.7811,,
72,0.8200,,
73,0.8579,,
74,0.8952,,
75,0.9323,,
76,0.9694,,
77,1.0070,,
78,1.0449,,
79,1.0830,,
80,1.1209,,
81,1.1582,,
82,1.1945,,
83,1.2292,,
84,1.2622,,
85,1.2938,,
86,1.3239,,
87,1.3533,,
88,1.3826,,
89,1.4124,,
90,1.4436,,
91,1.4771,,
92,1.5134,,
93,1.5531,,
94,1.5964,,
95,1.6436,,
96,1.6941,,
97,1.7475,,
98,1.8028,,
99,1.8588,,
100,1.9141,,
101,1.9670,,
102,2.0163,,
103,2.0604,,
104,2.0982,,
105,2.1290,,
106,2.1526,,
107,2.1690,,
108,2.1791,,
109,2.1838,,
110,2.1847,,
111,2.1835,,
112,2.1821,,
113,2.1825,,
114,2.1863,,
115,2.1952,,
116,2.2103,,
117,2.2325,,
118,2.2623,,
119,2.2998,,
120,2.3446,,
121,2.3962,,
122,2.4537,,
123,2.5163,,
124,2.5827,,
125,2.6518,,
126,2.7225,,
127,2.7937,,
128,2.8644,,
129,2.9337,,
130,3.0009,,
131,3.0653,,
132,3.1267,,
133,3.1847,,
134,3.2390,,
135,3.2897,,
136,3.3367,,
137,3.3802,,
138,3.4206,,
139,3.4581,,
140,3.4930,,
141,3.5257,,
142,3.5568,,
143,3.5865,,
144,3.6153,,
145,3.6437,,
146,3.6722,,
147,3.7012,,
148,3.7306,,
149,3.7610,,
150,3.7925,,
151,3.8253,,
152,3.8594,,
153,3.8947,,
154,3.9314,,
155,3.9693,,
156,4.0081,,
157,4.0479,,
158,4.0883,,
159,4.1292,,
160,4.1702,,
161,4.2115,,
162,4.2532,,
163,4.2942,,
164,4.3349,,
165,4.3754,,
166,4.4153,,
167,4.4545,,
168,4.4931,,
169,4.5314,,
170,4.5689,,
171,4.6054,,
172,4.6409,,
173,4.6754,,
174,4.7086,,
175,4.7405,,
176,4.7711,,
177,4.8003,,
178,4.8277,,
179,4.8537,,
180,4.8780,,
181,4.9008,,
182,4.9222,,
183,4.9426,,
184,4.9624,,
185,4.9815,,
186,5.0006,,
187,5.0202,,
188,5.0410,,
189,5.0636,,
190,5.0886,,
191,5.1168,,
192,5.1491,,
193,5.1859,,
194,5.2280,,
195,5.2765,,
196,5.3314,,
197,5.3936,,
198,5.4636,,
199,5.5417,,
200,5.6282,,
201,5.7232,,
202,5.8268,,
203,5.9390,,
204,6.0596,,
205,6.1881,,
206,6.3243,,
207,6.4673,,
208,6.6164,,
209,6.7709,,
210,6.9297,,
211,7.0917,,
212,7.2560,,
213,7.4210,,
214,7.5860,,
215,7.7489,,
216,7.9088,,
217,8.0643,,
218,8.2144,,
219,8.3576,,
220,8.4929,,
221,8.6191,,
222,8.7356,,
223,8.8414,,
224,8.9358,,
225,9.0183,,
226,9.0886,,
227,9.1466,,
228,9.1922,,
229,9.2253,,
230,9.2470,,
231,9.2569,,
232,9.2560,,
233,9.2448,,
234,9.2243,,
235,9.1953,,
236,9.1588,,
237,9.1158,,
238,9.0673,,
239,9.0145,,
240,8.9582,,
241,8.8997,,
242,8.8399,,
243,8.7797,,
244,8.7201,,
245,8.6617,,
246,8.6055,,
247,8.5521,,
248,8.5017,,
249,8.4552,,
250,8.4127,,
251,8.3747,,
252,8.3413,,
253,8.3130,,
254,8.2892,,
255,8.2707,,
256,8.2570,,
257,8.2481,,
258,8.2438,,
259,8.2441,,
260,8.2508,,
261,8.2600,,
262,8.2730,,
263,8.2896,,
264,8.3097,,
265,8.3327,,
266,8.3585,,
267,8.3867,,
268,8.4169,,
269,8.4488,,
270,8.4820,,
271,8.5163,,
272,8.5511,,
273,8.5862,,
274,8.6211,,
275,8.6554,,
276,8.6889,,
277,8.7209,,
278,8.7511,,
279,8.7789,,
280,8.8049,,
281,8.8279,,
282,8.8478,,
283,8.8649,,
284,8.8776,,
285,8.8866,,
286,8.8914,,
287,8.8920,,
288,8.8881,,
289,8.8798,,
290,8.8669,,
291,8.8496,,
292,8.8279,,
293,8.8021,,
294,8.7721,,
295,8.7381,,
296,8.7007,,
297,8.6601,,
298,8.6165,,
299,8.5703,,
300,8.5221,,
301,8.4722,,
302,8.4211,,
303,8.3694,,
304,8.3178,,
305,8.2665,,
306,8.2161,,
307,8.1673,,
308,8.1205,,
309,8.0764,,
310,8.0353,,
311,7.9980,,
312,7.9647,,
313,7.9360,,
314,7.9121,,
315,7.8935,,
316,7.8803,,
317,7.8731,,
318,7.8722,,
319,7.8773,,
320,7.8891,,
321,7.9073,,
322,7.9321,,
323,7.9634,,
324,8.0011,,
325,8.0451,,
326,8.0951,,
327,8.1510,,
328,8.2126,,
329,8.2795,,
330,8.3510,,
331,8.4270,,
332,8.5071,,
333,8.5906,,
334,8.6773,,
335,8.7662,,
336,8.8569,,
337,8.9491,,
338,9.0419,,
339,9.1348,,
340,9.2272,,
341,9.3186,,
342,9.4082,,
343,9.4955,,
344,9.5800,,
345,9.6612,,
346,9.7385,,
347,9.8114,,
348,9.8795,,
349,9.9424,,
350,9.9997,,
351,10.0513,,
352,10.0965,,
353,10.1353,,
354,10.1676,,
355,10.1928,,
356,10.2114,,
357,10.2231,,
358,10.2278,,
359,10.2257,,
360,10.2167,,
361,10.2010,,
362,10.1787,,
363,10.1499,,
364,10.1150,,
365,10.0744,,
366,10.0281,,
367,9.9763,,
368,9.9195,,
369,9.8578,,
370,9.7917,,
371,9.7213,,
372,9.6473,,
373,9.5699,,
374,9.4893,,
375,9.4059,,
376,9.3200,,
377,9.2318,,
378,9.1417,,
379,9.0499,,
380,8.9568,,
381,8.8624,,
382,8.7672,,
383,8.6713,,
384,8.5747,,
385,8.4778,,
386,8.3807,,
387,8.2834,,
388,8.1863,,
389,8.0893,,
390,7.9924,,
391,7.8958,,
392,7.7996,,
393,7.7038,,
394,7.6085,,
395,7.5136,,
396,7.4193,,
397,7.3252,,
398,7.2320,,
399,7.1393,,
400,7.0473,,
401,6.9558,,
402,6.8650,,
403,6.7747,,
404,6.6852,,
405,6.5964,,
406,6.5082,,
407,6.4209,,
408,6.3342,,
409,6.2484,,
410,6.1634,,
411,6.0793,,
412,5.9961,,
413,5.9140,,
414,5.8329,,
415,5.7528,,
416,5.6739,,
417,5.5961,,
418,5.5196,,
419,5.4444,,
420,5.3705,,
421,5.2980,,
422,5.2270,,
423,5.1576,,
424,5.0896,,
425,5.0232,,
426,4.9585,,
427,4.8954,,
428,4.8340,,
429,4.7743,,
430,4.7163,,
431,4.6602,,
432,4.6058,,
433,4.5531,,
434,4.5022,,
435,4.4533,,
436,4.4056,,
437,4.3600,,
438,4.3160,,
439,4.2737,,
440,4.2329,,
441,4.1938,,
442,4.1563,,
443,4.1202,,
444,4.0856,,
445,4.0524,,
446,4.0205,,
447,3.9899,,
448,3.9605,,
449,3.9304,,
450,3.9035,,
451,3.8776,,
452,3.8526,,
453,3.8284,,
454,3.8050,,
455,3.7823,,
456,3.7604,,
457,3.7389,,
458,3.7179,,
459,3.6974,,
460,3.6772,,
461,3.6574,,
462,3.6377,,
463,3.6183,,
464,3.5990,,
465,3.5797,,
466,3.5604,,
467,3.5411,,
468,3.5217,,
469,3.5021,,
470,3.4823,,
471,3.4622,,
472,3.4419,,
473,3.4213,,
474,3.4002,,
475,3.3788,,
476,3.3570,,
477,3.3346,,
478,3.3119,,
479,3.2887,,
480,3.2650,,
481,3.2408,,
482,3.2160,,
483,3.1907,,
484,3.1648,,
485,3.1384,,
486,3.1114,,
487,3.0840,,
488,3.0560,,
489,3.0275,,
490,2.9978,,
491,2.9685,,
492,2.9386,,
493,2.9082,,
494,2.8774,,
495,2.8462,,
496,2.8146,,
497,2.7828,,
498,2.7505,,
499,2.7179,,
500,2.6850,,
501,2.6519,,
502,2.6185,,
503,2.5850,,
504,2.5514,,
505,2.5176,,
506,2.4838,,
507,2.4501,,
508,2.4163,,
509,2.3826,,
510,2.3490,,
511,2.3154,,
512,2.2821,,
513,2.2490,,
514,2.2161,,
515,2.1835,,
516,2.1512,,
517,2.1193,,
518,2.0877,,
519,2.0566,,
520,2.0259,,
521,1.9957,,
522,1.9660,,
523,1.9371,,
524,1.9085,,
525,1.8824,,
526,1.8553,,
527,1.8289,,
528,1.8031,,
529,1.7780,,
530,1.7537,,
531,1.7301,,
532,1.7073,,
533,1.6855,,
534,1.6643,,
535,1.6440,,
536,1.6244,,
537,1.6057,,
538,1.5877,,
539,1.5707,,
540,1.5544,,
541,1.5392,,
542,1.5248,,
543,1.5113,,
544,1.4986,,
545,1.4869,,
546,1.4759,,
547,1.4659,,
548,1.4567,,
549,1.4483,,
550,1.4408,,
551,1.4341,,
552,1.4283,,
553,1.4233,,
554,1.4191,,
555,1.4157,,
556,1.4130,,
557,1.4111,,
558,1.4100,,
559,1.4097,,
560,1.4100,,
561,1.4111,,
562,1.4129,,
563,1.4154,,
564,1.4185,,
565,1.4224,,
566,1.4268,,
567,1.4319,,
568,1.4376,,
569,1.4439,,
570,1.4509,,
571,1.4584,,
572,1.4665,,
573,1.4752,,
574,1.4845,,
575,1.4943,,
576,1.5047,,
577,1.5154,,
578,1.5268,,
579,1.5388,,
580,1.5513,,
581,1.5643,,
582,1.5778,,
583,1.5919,,
584,1.6064,,
585,1.6215,,
586,1.6372,,
587,1.6533,,
588,1.6699,,
589,1.6872,,
590,1.7050,,
591,1.7233,,
592,1.7422,,
593,1.7617,,
594,1.7818,,
595,1.8025,,
596,1.8239,,
597,1.8458,,
598,1.8685,,
599,1.8917,,
600,1.9157,,
601,1.9405,,
602,1.9659,,
603,1.9921,,
604,2.0191,,
605,2.0468,,
606,2.0753,,
607,2.1048,,
608,2.1350,,
609,2.1662,,
610,2.1982,,
611,2.2311,,
612,2.2651,,
613,2.3000,,
614,2.3363,,
615,2.3732,,
616,2.4112,,
617,2.4503,,
618,2.4904,,
619,2.5317,,
620,2.5741,,
621,2.6176,,
622,2.6622,,
623,2.7081,,
624,2.7552,,
625,2.8034,,
626,2.8529,,
627,2.9036,,
628,2.9555,,
629,3.0087,,
630,3.0629,,
631,3.1187,,
632,3.1757,,
633,3.2339,,
634,3.2935,,
635,3.3543,,
636,3.4163,,
637,3.4796,,
638,3.5440,,
639,3.6098,,
640,3.6767,,
641,3.7448,,
642,3.8141,,
643,3.8851,,
644,3.9567,,
645,4.0294,,
646,4.1032,,
647,4.1780,,
648,4.2538,,
649,4.3306,,
650,4.4082,,
651,4.4868,,
652,4.5662,,
653,4.6463,,
654,4.7272,,
655,4.8087,,
656,4.8909,,
657,4.9736,,
658,5.0568,,
659,5.1405,,
660,5.2245,,
661,5.3088,,
662,5.3932,,
663,5.4779,,
664,5.5627,,
665,5.6475,,
666,5.7322,,
667,5.8167,,
668,5.9011,,
669,5.9850,,
670,6.0686,,
671,6.1522,,
672,6.2348,,
673,6.3167,,
674,6.3978,,
675,6.4782,,
676,6.5576,,
677,6.6360,,
678,6.7133,,
679,6.7895,,
680,6.8643,,
681,6.9378,,
682,7.0099,,
683,7.0804,,
684,7.1494,,
685,7.2166,,
686,7.2821,,
687,7.3457,,
688,7.4073,,
689,7.4670,,
690,7.5246,,
691,7.5800,,
692,7.6332,,
693,7.6841,,
694,7.7326,,
695,7.7787,,
696,7.8223,,
697,7.8634,,
698,7.9019,,
699,7.9377,,
700,7.9709,,
701,8.0013,,
702,8.0289,,
703,8.0537,,
704,8.0757,,
705,8.0948,,
706,8.1110,,
707,8.1243,,
708,8.1346,,
709,8.1420,,
710,8.1465,,
711,8.1479,,
712,8.1464,,
713,8.1420,,
714,8.1345,,
715,8.1241,,
716,8.1109,,
717,8.0947,,
718,8.0756,,
719,8.0537,,
720,8.0290,,
721,8.0015,,
722,7.9712,,
723,7.9382,,
724,7.9026,,
725,7.8643,,
726,7.8235,,
727,7.7802,,
728,7.7344,,
729,7.6863,,
730,7.6359,,
731,7.5832,,
732,7.5284,,
733,7.4715,,
734,7.4125,,
735,7.3516,,
736,7.2889,,
737,7.2244,,
738,7.1582,,
739,7.0904,,
740,7.0211,,
741,6.9503,,
742,6.8783,,
743,6.8049,,
744,6.7305,,
745,6.6550,,
746,6.5785,,
747,6.5012,,
748,6.4231,,
749,6.3443,,
750,6.2649,,
751,6.1850,,
752,6.1046,,
753,6.0240,,
754,5.9432,,
755,5.8623,,
756,5.7814,,
757,5.7005,,
758,5.6198,,
759,5.5393,,
760,5.4591,,
761,5.3793,,
762,5.2999,,
763,5.2212,,
764,5.1430,,
765,5.0655,,
766,4.9889,,
767,4.9130,,
768,4.8381,,
769,4.7642,,
770,4.6913,,
771,4.6194,,
772,4.5488,,
773,4.4793,,
774,4.4112,,
775,4.3443,,
776,4.2788,,
777,4.2146,,
778,4.1519,,
779,4.0907,,
780,4.0310,,
781,3.9729,,
782,3.9163,,
783,3.8613,,
784,3.8079,,
785,3.7562,,
786,3.7061,,
787,3.6576,,
788,3.6109,,
789,3.5658,,
790,3.5225,,
791,3.4809,,
792,3.4410,,
793,3.4028,,
794,3.3663,,
795,3.3315,,
796,3.2984,,
797,3.2669,,
798,3.2372,,
799,3.2090,,
800,3.1825,,
801,3.1577,,
802,3.1344,,
803,3.1127,,
804,3.0925,,
805,3.0738,,
806,3.0567,,
807,3.0410,,
808,3.0268,,
809,3.0140,,
810,3.0025,,
811,2.9924,,
812,2.9836,,
813,2.9761,,
814,2.9698,,
815,2.9647,,
816,2.9607,,
817,2.9579,,
818,2.9562,,
819,2.9555,,
820,2.9558,,
821,2.9571,,
822,2.9593,,
823,2.9624,,
824,2.9663,,
825,2.9710,,
826,2.9765,,
827,2.9826,,
828,2.9895,,
829,2.9970,,
830,3.0051,,
831,3.0137,,
832,3.0228,,
833,3.0324,,
834,3.0424,,
835,3.0529,,
836,3.0636,,
837,3.0747,,
838,3.0860,,
839,3.0976,,
840,3.1094,,
841,3.1213,,
842,3.1333,,
843,3.1455,,
844,3.1576,,
845,3.1699,,
846,3.1820,,
847,3.1942,,
848,3.2062,,
849,3.2182,,
850,3.2300,,
851,3.2416,,
852,3.2531,,
853,3.2643,,
854,3.2753,,
855,3.2860,,
856,3.2963,,
857,3.3064,,
858,3.3178,,
859,3.3272,,
860,3.3363,,
861,3.3449,,
862,3.3532,,
863,3.3609,,
864,3.3682,,
865,3.3750,,
866,3.3813,,
867,3.3871,,
868,3.3924,,
869,3.3971,,
870,3.4012,,
871,3.4048,,
872,3.4076,,
873,3.4100,,
874,3.4119,,
875,3.4131,,
876,3.4137,,
877,3.4137,,
878,3.4131,,
879,3.4118,,
880,3.4099,,
881,3.4073,,
882,3.4041,,
883,3.4003,,
884,3.3958,,
885,3.3907,,
886,3.3849,,
887,3.3785,,
888,3.3714,,
889,3.3637,,
890,3.3553,,
891,3.3463,,
892,3.3367,,
893,3.3264,,
894,3.3155,,
895,3.3040,,
896,3.2919,,
897,3.2791,,
898,3.2658,,
899,3.2519,,
900,3.2374,,
901,3.2223,,
902,3.2066,,
903,3.1904,,
904,3.1735,,
905,3.1562,,
906,3.1366,,
907,3.1184,,
908,3.0997,,
909,3.0806,,
910,3.0609,,
911,3.0408,,
912,3.0202,,
913,2.9991,,
914,2.9776,,
915,2.9557,,
916,2.9335,,
917,2.9108,,
918,2.8877,,
919,2.8643,,
920,2.8403,,
921,2.8163,,
922,2.7919,,
923,2.7672,,
924,2.7423,,
925,2.7171,,
926,2.6916,,
927,2.6659,,
928,2.6400,,
929,2.6139,,
930,2.5876,,
931,2.5612,,
932,2.5346,,
933,2.5079,,
934,2.4811,,
935,2.4541,,
936,2.4271,,
937,2.4000,,
938,2.3729,,
939,2.3458,,
940,2.3186,,
941,2.2915,,
942,2.2643,,
943,2.2372,,
944,2.2102,,
945,2.1832,,
946,2.1563,,
947,2.1295,,
948,2.1028,,
949,2.0763,,
950,2.0499,,
951,2.0237,,
952,1.9976,,
953,1.9718,,
954,1.9461,,
955,1.9207,,
956,1.8955,,
957,1.8705,,
958,1.8459,,
959,1.8215,,
960,1.7974,,
961,1.7736,,
962,1.7501,,
963,1.7270,,
964,1.7042,,
965,1.6818,,
966,1.6597,,
967,1.6380,,
968,1.6167,,
969,1.5959,,
970,1.5754,,
971,1.5554,,
972,1.5358,,
973,1.5167,,
974,1.4980,,
975,1.4798,,
976,1.4621,,
977,1.4449,,
978,1.4282,,
979,1.4120,,
980,1.3963,,
981,1.3812,,
982,1.3666,,
983,1.3525,,
984,1.3390,,
985,1.3260,,
986,1.3137,,
987,1.3018,,
988,1.2906,,
989,1.2800,,
990,1.2699,,
991,1.2605,,
992,1.2517,,
993,1.2435,,
994,1.2359,,
995,1.2289,,
996,1.2225,,
997,1.2168,,
998,1.2117,,
999,1.2073,,
1000,1.2035,,
1001,1.2004,,
1002,1.1979,,
1003,1.1961,,
1004,1.1949,,
1005,1.1944,,
1006,1.1945,,
1007,1.1954,,
1008,1.1968,,
1009,1.1990,,
1010,1.2018,,
1011,1.2053,,
1012,1.2095,,
1013,1.2143,,
1014,1.2199,,
1015,1.2261,,
1016,1.2329,,
1017,1.2405,,
1018,1.2487,,
1019,1.2576,,
1020,1.2672,,
1021,1.2774,,
1022,1.2883,,
1023,1.2999,,
1024,1.3121,,
1025,1.3251,,
1026,1.3386,,
1027,1.3529,,
1028,1.3678,,
1029,1.3833,,
1030,1.3996,,
1031,1.4164,,
1032,1.4339,,
1033,1.4521,,
1034,1.4709,,
1035,1.4903,,
1036,1.5104,,
1037,1.5311,,
1038,1.5524,,
1039,1.5743,,
1040,1.5969,,
1041,1.6200,,
1042,1.6438,,
1043,1.6681,,
1044,1.6930,,
1045,1.7186,,
1046,1.7447,,
1047,1.7713,,
1048,1.7986,,
1049,1.8264,,
1050,1.8547,,
1051,1.8836,,
1052,1.9130,,
1053,1.9429,,
1054,1.9734,,
1055,2.0044,,
1056,2.0359,,
1057,2.0678,,
1058,2.1003,,
1059,2.1332,,
1060,2.1666,,
1061,2.2001,,
1062,2.2344,,
1063,2.2691,,
1064,2.3043,,
1065,2.3399,,
1066,2.3758,,
1067,2.4122,,
1068,2.4490,,
1069,2.4861,,
1070,2.5235,,
1071,2.5613,,
1072,2.5995,,
1073,2.6379,,
1074,2.6767,,
1075,2.7157,,
1076,2.7551,,
1077,2.7947,,
1078,2.8345,,
1079,2.8746,,
1080,2.9150,,
1081,2.9555,,
1082,2.9962,,
1083,3.0372,,
1084,3.0782,,
1085,3.1195,,
1086,3.1609,,
1087,3.2024,,
1088,3.2440,,
1089,3.2857,,
1090,3.3275,,
1091,3.3694,,
1092,3.4113,,
1093,3.4532,,
1094,3.4951,,
1095,3.5371,,
1096,3.5790,,
1097,3.6209,,
1098,3.6628,,
1099,3.7045,,
1100,3.7462,,
1101,3.7878,,
1102,3.8293,,
1103,3.8706,,
1104,3.9118,,
1105,3.9529,,
1106,3.9937,,
1107,4.0343,,
1108,4.0748,,
1109,4.1150,,
1110,4.1544,,
1111,4.1941,,
1112,4.2335,,
1113,4.2726,,
1114,4.3114,,
1115,4.3498,,
1116,4.3879,,
1117,4.4256,,
1118,4.4629,,
1119,4.4998,,
1120,4.5363,,
1121,4.5724,,
1122,4.6080,,
1123,4.6431,,
1124,4.6778,,
1125,4.7119,,
1126,4.7455,,
1127,4.7786,,
1128,4.8112,,
1129,4.8432,,
1130,4.8746,,
1131,4.9054,,
1132,4.9356,,
1133,4.9651,,
1134,4.9941,,
1135,5.0224,,
1136,5.0500,,
1137,5.0770,,
1138,5.1032,,
1139,5.1288,,
1140,5.1537,,
1141,5.1778,,
1142,5.2012,,
1143,5.2238,,
1144,5.2457,,
1145,5.2668,,
1146,5.2872,,
1147,5.3067,,
1148,5.3254,,
1149,5.3434,,
1150,5.3605,,
1151,5.3768,,
1152,5.3922,,
1153,5.4068,,
1154,5.4206,,
1155,5.4335,,
1156,5.4456,,
1157,5.4567,,
1158,5.4666,,
1159,5.4760,,
1160,5.4846,,
1161,5.4923,,
1162,5.4990,,
1163,5.5049,,
1164,5.5099,,
1165,5.5140,,
1166,5.5172,,
1167,5.5194,,
1168,5.5208,,
1169,5.5213,,
1170,5.5208,,
1171,5.5194,,
1172,5.5172,,
1173,5.5140,,
1174,5.5099,,
1175,5.5049,,
1176,5.4990,,
1177,5.4923,,
1178,5.4846,,
1179,5.4760,,
1180,5.4666,,
1181,5.4562,,
1182,5.4450,,
1183,5.4330,,
1184,5.4200,,
1185,5.4062,,
1186,5.3916,,
1187,5.3761,,
1188,5.3597,,
1189,5.3426,,
1190,5.3246,,
1191,5.3058,,
1192,5.2862,,
1193,5.2658,,
1194,5.2446,,
1195,5.2226,,
1196,5.1999,,
1197,5.1765,,
1198,5.1522,,
1199,5.1273,,
1200,5.1016,,
1201,5.0753,,
1202,5.0482,,
1203,5.0205,,
1204,4.9921,,
1205,4.9630,,
1206,4.9333,,
1207,4.9029,,
1208,4.8720,,
1209,4.8404,,
1210,4.8083,,
1211,4.7756,,
1212,4.7423,,
1213,4.7085,,
1214,4.6741,,
1215,4.6393,,
1216,4.6039,,
1217,4.5681,,
1218,4.5318,,
1219,4.4950,,
1220,4.4579,,
1221,4.4202,,
1222,4.3822,,
1223,4.3438,,
1224,4.3051,,
1225,4.2659,,
1226,4.2265,,
1227,4.1867,,
1228,4.1466,,
1229,4.1062,,
1230,4.0655,,
1231,4.0246,,
1232,3.9834,,
1233,3.9421,,
1234,3.9004,,
1235,3.8586,,
1236,3.8167,,
1237,3.7745,,
1238,3.7322,,
1239,3.6898,,
1240,3.6472,,
1241,3.6046,,
1242,3.5619,,
1243,3.5191,,
1244,3.4762,,
1245,3.4333,,
1246,3.3904,,
1247,3.3474,,
1248,3.3045,,
1249,3.2615,,
1250,3.2186,,
1251,3.1757,,
1252,3.1329,,
1253,3.0902,,
1254,3.0475,,
1255,3.0050,,
1256,2.9625,,
1257,2.9202,,
1258,2.8780,,
1259,2.8359,,
1260,2.7940,,
1261,2.7523,,
1262,2.7107,,
1263,2.6693,,
1264,2.6282,,
1265,2.5872,,
1266,2.5464,,
1267,2.5059,,
1268,2.4656,,
1269,2.4256,,
1270,2.3858,,
1271,2.3463,,
1272,2.3071,,
1273,2.2682,,
1274,2.2295,,
1275,2.1911,,
1276,2.1531,,
1277,2.1153,,
1278,2.0779,,
1279,2.0408,,
1280,2.0041,,
1281,1.9676,,
1282,1.9316,,
1283,1.8958,,
1284,1.8605,,
1285,1.8254,,
1286,1.7908,,
1287,1.7565,,
1288,1.7226,,
1289,1.6891,,
1290,1.6559,,
1291,1.6231,,
1292,1.5908,,
1293,1.5588,,
1294,1.5272,,
1295,1.4960,,
1296,1.4652,,
1297,1.4347,,
1298,1.4047,,
1299,1.3751,,
1300,1.3459,,
1301,1.3171,,
1302,1.2887,,
1303,1.2607,,
1304,1.2331,,
1305,1.2060,,
1306,1.1792,,
1307,1.1528,,
1308,1.1268,,
1309,1.1013,,
1310,1.0761,,
1311,1.0514,,
1312,1.0270,,
1313,1.0030,,
1314,0.9795,,
1315,0.9563,,
1316,0.9335,,
1317,0.9112,,
1318,0.8892,,
1319,0.8676,,
1320,0.8464,,
1321,0.8255,,
1322,0.8051,,
1323,0.7850,,
1324,0.7653,,
1325,0.7460,,
1326,0.7270,,
1327,0.7084,,
1328,0.6902,,
1329,0.6723,,
1330,0.6548,,
1331,0.6376,,
1332,0.6208,,
1333,0.6043,,
1334,0.5882,,
1335,0.5724,,
1336,0.5569,,
1337,0.5418,,
1338,0.5270,,
1339,0.5125,,
1340,0.4983,,
1341,0.4845,,
1342,0.4709,,
1343,0.4576,,
1344,0.4447,,
1345,0.4320,,
1346,0.4197,,
1347,0.4076,,
1348,0.3958,,
1349,0.3843,,
1350,0.3730,,
1351,0.3621,,
1352,0.3514,,
1353,0.3409,,
1354,0.3307,,
1355,0.3208,,
1356,0.3111,,
1357,0.3016,,
1358,0.2924,,
1359,0.2835,,
1360,0.2747,,
1361,0.2662,,
1362,0.2579,,
1363,0.2498,,
1364,0.2419,,
1365,0.2343,,
1366,0.2268,,
1367,0.2196,,
1368,0.2125,,
1369,0.2057,,
1370,0.1990,,
1371,0.1925,,
1372,0.1862,,
1373,0.1801,,
1374,0.1741,,
1375,0.1683,,
1376,0.1627,,
1377,0.1572,,
1378,0.1519,,
1379,0.1468,,
1380,0.1418,,
1381,0.1370,,
1382,0.1322,,
1383,0.1277,,
1384,0.1233,,
1385,0.1190,,
1386,0.1148,,
1387,0.1108,,
1388,0.1069,,
1389,0.1031,,
1390,0.0994,,
1391,0.0958,,
1392,0.0924,,
1393,0.0891,,
1394,0.0858,,
1395,0.0827,,
1396,0.0797,,
1397,0.0768,,
1398,0.0739,,
1399,0.0712,,
1400,0.0685,,
1401,0.0660,,
1402,0.0635,,
1403,0.0611,,
1404,0.0588,,
1405,0.0566,,
1406,0.0544,,
1407,0.0523,,
1408,0.0503,,
1409,0.0484,,
1410,0.0465,,
1411,0.0447,,
1412,0.0429,,
1413,0.0412,,
1414,0.0396,,
1415,0.0380,,
1416,0.0365,,
1417,0.0351,,
1418,0.0337,,
1419,0.0323,,
1420,0.0310,,
1421,0.0298,,
1422,0.0285,,
1423,0.0274,,
1424,0.0263,,
1425,0.0252,,
1426,0.0241,,
1427,0.0231,,
1428,0.0222,,
1429,0.0212,,
1430,0.0204,,
1431,0.0195,,
1432,0.0187,,
1433,0.0179,,
1434,0.0171,,
1435,0.0164,,
1436,0.0157,,
1437,0.0150,,
1438,0.0144,,
1439,0.0137,,
1440,0.0131,,
1441,0.0126,,
1442,0.0120,,
1443,0.0115,,
1444,0.0110,,
1445,0.0105,,
1446,0.0100,,
1447,0.0096,,
1448,0.0092,,
1449,0.0087,,
1450,0.0083,,
1451,0.0080,,
1452,0.0076,,
1453,0.0073,,
1454,0.0069,,
1455,0.0066,,
1456,0.0063,,
1457,0.0060,,
1458,0.0057,,
1459,0.0055,,
1460,0.0052,,
1461,0.0050,,
1462,0.0047,,
1463,0.0045,,
1464,0.0043,,
1465,0.0041,,
1466,0.0039,,
1467,0.0037,,
1468,0.0035,,
1469,0.0034,,
1470,0.0032,,
1471,0.0030,,
1472,0.0029,,
1473,0.0028,,
1474,0.0026,,
1475,0.0025,,
1476,0.0024,,
1477,0.0023,,
1478,0.0021,,
1479,0.0020,,
1480,0.0019,,
1481,0.0000,,
1482,0.0000,,
1483,0.0000,,
1484,0.0000,,
1485,0.0000,,
1486,0.0000,,
1487,0.0000,,
1488,0.0000,,
1489,0.0000,,
1490,0.0000,,
1491,0.0000,,
1492,0.0000,,
1493,0.0000,,
1494,0.0000,,
1495,0.0000,,
1496,0.0000,,
1497,0.0000,,
1498,0.0000,,
1499,0.0000,,
1500,0.0000,,
1501,0.0000,,
1502,0.0000,,
1503,0.0000,,
1504,0.0000,,
1505,0.0000,,
1506,0.0000,,
1507,0.0000,,
1508,0.0000,,
1509,0.0000,,
1510,0.0000,,
1511,0.0000,,
1512,0.0000,,
1513,0.0000,,
1514,0.0000,,
1515,0.0000,,
1516,0.0000,,
1517,0.0000,,
1518,0.0000,,
1519,0.0000,,
1520,0.0000,,
1521,0.0000,,
1522,0.0000,,
1523,0.0000,,
1524,0.0000,,
1525,0.0000,,
1526,0.0000,,
1527,0.0000,,
1528,0.0000,,
1529,0.0000,,
1530,0.0000,,
1531,0.0000,,
1532,0.0000,,
1533,0.0000,,
1534,0.0000,,
1535,0.0000,,
1536,0.0000,,
1537,0.0000,,
1538,0.0000,,
1539,0.0000,,
1540,0.0000,,
1541,0.0000,,
1542,0.0000,,
1543,0.0000,,
1544,0.0000,,
1545,0.0000,,
1546,0.0000,,
1547,0.0000,,
1548,0.0000,,
1549,0.0000,,
1550,0.0000,,
1551,0.0000,,
1552,0.0000,,
1553,0.0000,,
1554,0.0000,,
1555,0.0000,,
1556,0.0000,,
1557,0.0000,,
1558,0.0000,,
1559,0.0000,,
1560,0.0000,,
1561,0.0000,,
1562,0.0000,,
1563,0.0000,,
1564,0.0000,,
1565,0.0000,,
1566,0.0000,,
1567,0.0000,,
1568,0.0000,,
1569,0.0000,,
1570,0.0000,,
1571,0.0000,,
1572,0.0000,,
1573,0.0000,,
1574,0.0000,,
1575,0.0000,,
1576,0.0000,,
1577,0.0000,,
1578,0.0000,,
1579,0.0000,,
1580,0.0000,,
1581,0.0000,,
1582,0.0000,,
1583,0.0000,,
1584,0.0000,,
1585,0.0000,,
1586,0.0000,,
1587,0.0000,,
1588,0.0000,,
1589,0.0000,,
1590,0.0000,,
1591,0.0000,,
1592,0.0000,,
1593,0.0000,,
1594,0.0000,,
1595,0.0000,,
1596,0.0000,,
1597,0.0000,,
1598,0.0000,,
1599,0.0000,,
1600,0.0000,,
1601,0.0000,,
1602,0.0000,,
1603,0.0000,,
1604,0.0000,,
1605,0.0000,,
1606,0.0000,,
1607,0.0000,,
1608,0.0000,,
1609,0.0000,,
1610,0.0000,,
1611,0.0000,,
1612,0.0000,,
1613,0.0000,,
1614,0.0000,,
1615,0.0000,,
1616,0.0000,,
1617,0.0000,,
1618,0.0000,,
1619,0.0000,,
1620,0.0000,,
1621,0.0000,,
1622,0.0000,,
1623,0.0000,,
1624,0.0000,,
1625,0.0000,,
1626,0.0000,,
1627,0.0000,,
1628,0.0000,,
1629,0.0000,,
1630,0.0000,,
1631,0.0000,,
1632,0.0000,,
1633,0.0000,,
1634,0.0000,,
1635,0.0000,,
1636,0.0000,,
1637,0.0000,,
1638,0.0000,,
1639,0.0000,,
1640,0.0000,,
1641,0.0000,,
1642,0.0000,,
1643,0.0000,,
1644,0.0000,,
1645,0.0000,,
1646,0.0000,,
1647,0.0000,,
1648,0.0000,,
1649,0.0000,,
1650,0.0000,,
1651,0.0000,,
1652,0.0000,,
1653,0.0000,,
1654,0.0000,,
1655,0.0000,,
1656,0.0000,,
1657,0.0000,,
1658,0.0000,,
1659,0.0000,,
1660,0.0000,,
1661,0.0000,,
1662,0.0000,,
1663,0.0000,,
1664,0.0000,,
1665,0.0000,,
1666,0.0000,,
1667,0.0000,,
1668,0.0000,,
1669,0.0000,,
1670,0.0000,,
1671,0.0000,,
1672,0.0000,,
1673,0.0000,,
1674,0.0000,,
1675,0.0000,,
1676,0.0000,,
1677,0.0000,,
1678,0.0000,,
1679,0.0000,,
1680,0.0000,,
1681,0.0000,,
1682,0.0000,,
1683,0.0000,,
1684,0.0000,,
1685,0.0000,,
1686,0.0000,,
1687,0.0000,,
1688,0.0000,,
1689,0.0000,,
1690,0.0000,,
1691,0.0000,,
1692,0.0000,,
1693,0.0000,,
1694,0.0000,,
1695,0.0000,,
1696,0.0000,,
1697,0.0000,,
1698,0.0000,,
1699,0.0000,,
1700,0.0000,,
1701,0.0000,,
1702,0.0000,,
1703,0.0000,,
1704,0.0000,,
1705,0.0000,,
1706,0.0000,,
1707,0.0000,,
1708,0.0000,,
1709,0.0000,,
1710,0.0000,,
1711,0.0000,,
1712,0.0000,,
1713,0.0000,,
1714,0.0000,,
1715,0.0000,,
1716,0.0000,,
1717,0.0000,,
1718,0.0000,,
1719,0.0000,,
1720,0.0000,,
1721,0.0000,,
1722,0.0000,,
1723,0.0000,,
1724,0.0000,,
1725,0.0000,,
1726,0.0000,,
1727,0.0000,,
1728,0.0000,,
1729,0.0000,,
1730,0.0000,,
1731,0.0000,,
1732,0.0000,,
1733,0.0000,,
1734,0.0000,,
1735,0.0000,,
1736,0.0000,,
1737,0.0000,,
1738,0.0000,,
1739,0.0000,,
1740,0.0000,,
1741,0.0000,,
1742,0.0000,,
1743,0.0000,,
1744,0.0000,,
1745,0.0000,,
1746,0.0000,,
1747,0.0000,,
1748,0.0000,,
1749,0.0000,,
1750,0.0000,,
1751,0.0000,,
1752,0.0000,,
1753,0.0000,,
1754,0.0000,,
1755,0.0000,,
1756,0.0000,,
1757,0.0000,,
1758,0.0000,,
1759,0.0000,,
1760,0.0000,,
1761,0.0000,,
1762,0.0000,,
1763,0.0000,,
1764,0.0000,,
1765,0.0000,,
1766,0.0000,,
1767,0.0000,,
1768,0.0000,,
1769,0.0000,,
1770,0.0000,,
1771,0.0000,,
1772,0.0000,,
1773,0.0000,,
1774,0.0000,,
1775,0.0000,,
1776,0.0000,,
1777,0.0000,,
1778,0.0000,,
1779,0.0000,,
1780,0.0000,,
1781,0.0000,,
1782,0.0000,,
1783,0.0000,,
1784,0.0000,,
1785,0.0000,,
1786,0.0000,,
1787,0.0000,,
1788,0.0000,,
1789,0.0000,,
1790,0.0000,,
1791,0.0000,,
1792,0.0000,,
1793,0.0000,,
1794,0.0000,,
1795,0.0000,,
1796,0.0000,,
1797,0.0000,,
1798,0.0000,,
1799,0.0000,,
1800,0.0000,,
1801,0.0000,,
1802,0.0000,,
1803,0.0000,,
1804,0.0000,,
1805,0.0000,,
1806,0.0000,,
1807,0.0000,,
1808,0.0000,,
1809,0.0000,,
1810,0.0000,,
1811,0.0000,,
1812,0.0000,,
1813,0.0000,,
1814,0.0000,,
1815,0.0000,,
1816,0.0000,,
1817,0.0000,,
1818,0.0000,,
1819,0.0000,,
1820,0.0000,,
1821,0.0000,,
1822,0.0000,,
1823,0.0000,,
1824,0.0000,,
1825,0.0000,,
1826,0.0000,,
1827,0.0000,,
1828,0.0000,,
1829,0.0000,,
1830,0.0000,,
1831,0.0000,,
1832,0.0000,,
1833,0.0000,,
1834,0.0000,,
1835,0.0000,,
1836,0.0000,,
1837,0.0000,,
1838,0.0000,,
1839,0.0000,,
1840,0.0000,,
1841,0.0000,,
1842,0.0000,,
1843,0.0000,,
1844,0.0000,,
1845,0.0000,,
1846,0.0000,,
1847,0.0000,,
1848,0.0000,,
1849,0.0000,,
1850,0.0000,,
1851,0.0000,,
1852,0.0000,,
1853,0.0000,,
1854,0.0000,,
1855,0.0000,,
1856,0.0000,,
1857,0.0000,,
1858,0.0000,,
1859,0.0000,,
1860,0.0000,,
1861,0.0000,,
1862,0.0000,,
1863,0.0000,,
1864,0.0000,,
1865,0.0000,,
1866,0.0000,,
1867,0.0000,,
1868,0.0000,,
1869,0.0000,,
1870,0.0000,,
1871,0.0000,,
1872,0.0000,,
1873,0.0000,,
1874,0.0000,,
1875,0.0000,,
1876,0.0000,,
1877,0.0000,,
1878,0.0000,,
1879,0.0000,,
1880,0.0000,,
1881,0.0000,,
1882,0.0000,,
1883,0.0000,,
1884,0.0000,,
1885,0.0000,,
1886,0.0000,,
1887,0.0000,,
1888,0.0000,,
1889,0.0000,,
1890,0.0000,,
1891,0.0000,,
1892,0.0000,,
1893,0.0000,,
1894,0.0000,,
1895,0.0000,,
1896,0.0000,,
1897,0.0000,,
1898,0.0000,,
1899,0.0000,,
1900,0.0000,,
1901,0.0000,,
1902,0.0000,,
1903,0.0000,,
1904,0.0000,,
1905,0.0000,,
1906,0.0000,,
1907,0.0000,,
1908,0.0000,,
1909,0.0000,,
1910,0.0000,,
1911,0.0000,,
1912,0.0000,,
1913,0.0000,,
1914,0.0000,,
1915,0.0000,,
1916,0.0000,,
1917,0.0000,,
1918,0.0000,,
1919,0.0000,,
1920,0.0000,,
1921,0.0000,,
1922,0.0000,,
1923,0.0000,,
1924,0.0000,,
1925,0.0000,,
1926,0.0000,,
1927,0.0000,,
1928,0.0000,,
1929,0.0000,,
1930,0.0000,,
1931,0.0000,,
1932,0.0000,,
1933,0.0000,,
1934,0.0000,,
1935,0.0000,,
1936,0.0000,,
1937,0.0000,,
1938,0.0000,,
1939,0.0000,,
1940,0.0000,,
1941,0.0000,,
1942,0.0000,,
1943,0.0000,,
1944,0.0000,,
1945,0.0000,,
1946,0.0000,,
1947,0.0000,,
1948,0.0000,,
1949,0.0000,,
1950,0.0000,,
1951,0.0000,,
1952,0.0000,,
1953,0.0000,,
1954,0.0000,,
1955,0.0000,,
1956,0.0000,,
1957,0.0000,,
1958,0.0000,,
1959,0.0000,,
1960,0.0000,,
1961,0.0000,,
1962,0.0000,,
1963,0.0000,,
1964,0.0000,,
1965,0.0000,,
1966,0.0000,,
1967,0.0000,,
1968,0.0000,,
1969,0.0000,,
1970,0.0000,,
1971,0.0000,,
1972,0.0000,,
1973,0.0000,,
1974,0.0000,,
1975,0.0000,,
1976,0.0000,,
1977,0.0000,,
1978,0.0000,,
1979,0.0000,,
1980,0.0000,,
1981,0.0000,,
1982,0.0000,,
1983,0.0000,,
1984,0.0000,,
1985,0.0000,,
1986,0.0000,,
1987,0.0000,,
1988,0.0000,,
1989,0.0000,,
1990,0.0000,,
1991,0.0000,,
1992,0.0000,,
1993,0.0000,,
1994,0.0000,,
1995,0.0000,,
1996,0.0000,,
1997,0.0000,,
1998,0.0000,,
1999,0.0000,,

[Histogram Data]
Binwidth,4
Particle Size (nm),Volume Concentration (E12 nm³ / ml),,
2.0,0.0000,,
6.0,0.0000,,
10.0,0.0000,,
14.0,0.0000,,
18.0,0.0000,,
22.0,0.0000,,
26.0,0.0018,,
30.0,0.0119,,
34.0,0.0466,,
38.0,0.1115,,
42.0,0.2615,,
46.0,0.3687,,
50.0,0.5153,,
54.0,0.8253,,
58.0,1.2346,,
62.0,1.4168,,
66.0,2.0775,,
70.0,2.9601,,
74.0,3.6188,,
78.0,3.3741,,
82.0,5.2371,,
86.0,5.0070,,
90.0,5.5411,,
94.0,5.1934,,
98.0,6.9165,,
102.0,7.3390,,
106.0,10.9331,,
110.0,10.0732,,
114.0,7.0401,,
118.0,6.9421,,
122.0,7.1812,,
126.0,10.5237,,
130.0,11.8547,,
134.0,15.6084,,
138.0,14.7738,,
142.0,9.2107,,
146.0,20.5981,,
150.0,10.3239,,
154.0,12.9606,,
158.0,19.8979,,
162.0,20.7852,,
166.0,11.7806,,
170.0,14.1594,,
174.0,22.1687,,
178.0,11.9158,,
182.0,34.8078,,
186.0,13.6447,,
190.0,29.1965,,
194.0,7.9417,,
198.0,16.4617,,
202.0,31.6479,,
206.0,11.5480,,
210.0,12.6500,,
214.0,19.6004,,
218.0,16.2970,,
222.0,75.2050,,
226.0,31.8449,,
230.0,70.8816,,
234.0,58.0505,,
238.0,15.4178,,
242.0,17.8453,,
246.0,15.4884,,
250.0,73.3834,,
254.0,17.5597,,
258.0,20.8975,,
262.0,39.9159,,
266.0,35.8319,,
270.0,23.6687,,
274.0,13.0765,,
278.0,15.2628,,
282.0,54.3753,,
286.0,54.7494,,
290.0,65.4686,,
294.0,52.4560,,
298.0,16.5926,,
302.0,36.7046,,
306.0,20.0164,,
310.0,26.6950,,
314.0,67.5434,,
318.0,22.5244,,
322.0,3.9351,,
326.0,0.0000,,
330.0,3.8824,,
334.0,17.2348,,
338.0,31.7930,,
342.0,0.0000,,
346.0,52.2166,,
350.0,5.8433,,
354.0,348.3786,,
358.0,0.0000,,
362.0,7.3287,,
366.0,0.0000,,
370.0,0.0000,,
374.0,0.0000,,
378.0,23.4800,,
382.0,27.9036,,
386.0,153.5350,,
390.0,0.0000,,
394.0,0.0000,,
398.0,92.1347,,
402.0,25.0487,,
406.0,0.0000,,
410.0,11.4130,,
414.0,31.3311,,
418.0,0.0000,,
422.0,0.0000,,
426.0,63.9721,,
430.0,9.9997,,
434.0,12.7432,,
438.0,0.0000,,
442.0,0.0000,,
446.0,11.3897,,
450.0,19.4044,,
454.0,40.6544,,
458.0,0.0000,,
462.0,0.0000,,
466.0,29.6622,,
470.0,16.0857,,
474.0,20.6265,,
478.0,18.2089,,
482.0,21.9640,,
486.0,0.0000,,
490.0,0.0000,,
494.0,0.0000,,
498.0,68.6190,,
502.0,19.9668,,
506.0,0.0000,,
510.0,0.0000,,
514.0,0.0000,,
518.0,0.0000,,
522.0,27.8919,,
526.0,0.0000,,
530.0,0.0000,,
534.0,0.0000,,
538.0,0.0000,,
542.0,0.0000,,
546.0,0.0000,,
550.0,0.0000,,
554.0,0.0000,,
558.0,0.0000,,
562.0,34.9866,,
566.0,0.0000,,
570.0,0.0000,,
574.0,0.0000,,
578.0,0.0000,,
582.0,0.0000,,
586.0,0.0000,,
590.0,0.0000,,
594.0,53.1405,,
598.0,0.0000,,
602.0,0.0000,,
606.0,0.0000,,
610.0,0.0000,,
614.0,0.0000,,
618.0,0.0000,,
622.0,56.3280,,
626.0,0.0000,,
630.0,0.0000,,
634.0,0.0000,,
638.0,0.0000,,
642.0,0.0000,,
646.0,0.0000,,
650.0,0.0000,,
654.0,0.0000,,
658.0,0.0000,,
662.0,0.0000,,
666.0,0.0000,,
670.0,0.0000,,
674.0,0.0000,,
678.0,79.0481,,
682.0,0.0000,,
686.0,0.0000,,
690.0,86.1520,,
694.0,0.0000,,
698.0,0.0000,,
702.0,0.0000,,
706.0,0.0000,,
710.0,0.0000,,
714.0,737.0819,,
718.0,0.0000,,
722.0,0.0000,,
726.0,82.4745,,
730.0,0.0000,,
734.0,0.0000,,
738.0,0.0000,,
742.0,0.0000,,
746.0,0.0000,,
750.0,0.0000,,
754.0,0.0000,,
758.0,0.0000,,
762.0,0.0000,,
766.0,0.0000,,
770.0,0.0000,,
774.0,0.0000,,
778.0,0.0000,,
782.0,0.0000,,
786.0,0.0000,,
790.0,0.0000,,
794.0,0.0000,,
798.0,0.0000,,
802.0,0.0000,,
806.0,0.0000,,
810.0,0.0000,,
814.0,0.0000,,
818.0,0.0000,,
822.0,0.0000,,
826.0,0.0000,,
830.0,0.0000,,
834.0,0.0000,,
838.0,137.8338,,
842.0,0.0000,,
846.0,0.0000,,
850.0,0.0000,,
854.0,0.0000,,
858.0,0.0000,,
862.0,0.0000,,
866.0,0.0000,,
870.0,0.0000,,
874.0,0.0000,,
878.0,217.2499,,
882.0,0.0000,,
886.0,0.0000,,
890.0,0.0000,,
894.0,0.0000,,
898.0,0.0000,,
902.0,0.0000,,
906.0,0.0000,,
910.0,0.0000,,
914.0,209.3626,,
918.0,0.0000,,
922.0,0.0000,,
926.0,0.0000,,
930.0,0.0000,,
934.0,0.0000,,
938.0,0.0000,,
942.0,0.0000,,
946.0,0.0000,,
950.0,0.0000,,
954.0,0.0000,,
958.0,0.0000,,
962.0,0.0000,,
966.0,0.0000,,
970.0,0.0000,,
974.0,0.0000,,
978.0,0.0000,,
982.0,0.0000,,
986.0,0.0000,,
990.0,0.0000,,
994.0,0.0000,,
998.0,0.0000,,
1002.0,0.0000,,
1006.0,0.0000,,
1010.0,0.0000,,
1014.0,0.0000,,
1018.0,0.0000,,
1022.0,0.0000,,
1026.0,0.0000,,
1030.0,0.0000,,
1034.0,0.0000,,
1038.0,0.0000,,
1042.0,0.0000,,
1046.0,0.0000,,
1050.0,0.0000,,
1054.0,0.0000,,
1058.0,0.0000,,
1062.0,0.0000,,
1066.0,0.0000,,
1070.0,0.0000,,
1074.0,0.0000,,
1078.0,0.0000,,
1082.0,0.0000,,
1086.0,0.0000,,
1090.0,0.0000,,
1094.0,0.0000,,
1098.0,0.0000,,
1102.0,0.0000,,
1106.0,0.0000,,
1110.0,0.0000,,
1114.0,0.0000,,
1118.0,0.0000,,
1122.0,0.0000,,
1126.0,0.0000,,
1130.0,0.0000,,
1134.0,0.0000,,
1138.0,0.0000,,
1142.0,0.0000,,
1146.0,0.0000,,
1150.0,0.0000,,
1154.0,0.0000,,
1158.0,0.0000,,
1162.0,0.0000,,
1166.0,0.0000,,
1170.0,1079.0454,,
1174.0,0.0000,,
1178.0,0.0000,,
1182.0,0.0000,,
1186.0,0.0000,,
1190.0,0.0000,,
1194.0,0.0000,,
1198.0,0.0000,,
1202.0,0.0000,,
1206.0,0.0000,,
1210.0,0.0000,,
1214.0,0.0000,,
1218.0,0.0000,,
1222.0,0.0000,,
1226.0,0.0000,,
1230.0,0.0000,,
1234.0,0.0000,,
1238.0,0.0000,,
1242.0,0.0000,,
1246.0,0.0000,,
1250.0,0.0000,,
1254.0,0.0000,,
1258.0,0.0000,,
1262.0,0.0000,,
1266.0,0.0000,,
1270.0,0.0000,,
1274.0,0.0000,,
1278.0,0.0000,,
1282.0,0.0000,,
1286.0,0.0000,,
1290.0,0.0000,,
1294.0,0.0000,,
1298.0,0.0000,,
1302.0,0.0000,,
1306.0,0.0000,,
1310.0,0.0000,,
1314.0,0.0000,,
1318.0,0.0000,,
1322.0,0.0000,,
1326.0,0.0000,,
1330.0,0.0000,,
1334.0,0.0000,,
1338.0,0.0000,,
1342.0,0.0000,,
1346.0,0.0000,,
1350.0,0.0000,,
1354.0,0.0000,,
1358.0,0.0000,,
1362.0,0.0000,,
1366.0,0.0000,,
1370.0,0.0000,,
1374.0,0.0000,,
1378.0,0.0000,,
1382.0,0.0000,,
1386.0,0.0000,,
1390.0,0.0000,,
1394.0,0.0000,,
1398.0,0.0000,,
1402.0,0.0000,,
1406.0,0.0000,,
1410.0,0.0000,,
1414.0,0.0000,,
1418.0,0.0000,,
1422.0,0.0000,,
1426.0,0.0000,,
1430.0,0.0000,,
1434.0,0.0000,,
1438.0,0.0000,,
1442.0,0.0000,,
1446.0,0.0000,,
1450.0,0.0000,,
1454.0,0.0000,,
1458.0,0.0000,,
1462.0,0.0000,,
1466.0,0.0000,,
1470.0,0.0000,,
1474.0,0.0000,,
1478.0,0.0000,,
1482.0,0.0000,,
1486.0,0.0000,,
1490.0,0.0000,,
1494.0,0.0000,,
1498.0,0.0000,,
1502.0,0.0000,,
1506.0,0.0000,,
1510.0,0.0000,,
1514.0,0.0000,,
1518.0,0.0000,,
1522.0,0.0000,,
1526.0,0.0000,,
1530.0,0.0000,,
1534.0,0.0000,,
1538.0,0.0000,,
1542.0,0.0000,,
1546.0,0.0000,,
1550.0,0.0000,,
1554.0,0.0000,,
1558.0,0.0000,,
1562.0,0.0000,,
1566.0,0.0000,,
1570.0,0.0000,,
1574.0,0.0000,,
1578.0,0.0000,,
1582.0,0.0000,,
1586.0,0.0000,,
1590.0,0.0000,,
1594.0,0.0000,,
1598.0,0.0000,,
1602.0,0.0000,,
1606.0,0.0000,,
1610.0,0.0000,,
1614.0,0.0000,,
1618.0,0.0000,,
1622.0,0.0000,,
1626.0,0.0000,,
1630.0,0.0000,,
1634.0,0.0000,,
1638.0,0.0000,,
1642.0,0.0000,,
1646.0,0.0000,,
1650.0,0.0000,,
1654.0,0.0000,,
1658.0,0.0000,,
1662.0,0.0000,,
1666.0,0.0000,,
1670.0,0.0000,,
1674.0,0.0000,,
1678.0,0.0000,,
1682.0,0.0000,,
1686.0,0.0000,,
1690.0,0.0000,,
1694.0,0.0000,,
1698.0,0.0000,,
1702.0,0.0000,,
1706.0,0.0000,,
1710.0,0.0000,,
1714.0,0.0000,,
1718.0,0.0000,,
1722.0,0.0000,,
1726.0,0.0000,,
1730.0,0.0000,,
1734.0,0.0000,,
1738.0,0.0000,,
1742.0,0.0000,,
1746.0,0.0000,,
1750.0,0.0000,,
1754.0,0.0000,,
1758.0,0.0000,,
1762.0,0.0000,,
1766.0,0.0000,,
1770.0,0.0000,,
1774.0,0.0000,,
1778.0,0.0000,,
1782.0,0.0000,,
1786.0,0.0000,,
1790.0,0.0000,,
1794.0,0.0000,,
1798.0,0.0000,,
1802.0,0.0000,,
1806.0,0.0000,,
1810.0,0.0000,,
1814.0,0.0000,,
1818.0,0.0000,,
1822.0,0.0000,,
1826.0,0.0000,,
1830.0,0.0000,,
1834.0,0.0000,,
1838.0,0.0000,,
1842.0,0.0000,,
1846.0,0.0000,,
1850.0,0.0000,,
1854.0,0.0000,,
1858.0,0.0000,,
1862.0,0.0000,,
1866.0,0.0000,,
1870.0,0.0000,,
1874.0,0.0000,,
1878.0,0.0000,,
1882.0,0.0000,,
1886.0,0.0000,,
1890.0,0.0000,,
1894.0,0.0000,,
1898.0,0.0000,,
1902.0,0.0000,,
1906.0,0.0000,,
1910.0,0.0000,,
1914.0,0.0000,,
1918.0,0.0000,,
1922.0,0.0000,,
1926.0,0.0000,,
1930.0,0.0000,,
1934.0,0.0000,,
1938.0,0.0000,,
1942.0,0.0000,,
1946.0,0.0000,,
1950.0,0.0000,,
1954.0,0.0000,,
1958.0,0.0000,,
1962.0,0.0000,,
1966.0,0.0000,,
1970.0,0.0000,,
1974.0,0.0000,,
1978.0,0.0000,,
1982.0,0.0000,,
1986.0,0.0000,,
1990.0,0.0000,,
1994.0,0.0000,,
1998.0,0.0000,,

[Percentile Undersize]
Percentile,Particle Size (nm) (Volume Weighted),
0,19,
1,103,
2,127,
3,143,
4,158,
5,170,
6,182,
7,192,
8,202,
9,211,
10,218,
11,224,
12,230,
13,236,
14,242,
15,248,
16,255,
17,261,
18,268,
19,274,
20,280,
21,287,
22,293,
23,299,
24,305,
25,312,
26,319,
27,326,
28,332,
29,338,
30,344,
31,350,
32,355,
33,360,
34,366,
35,371,
36,377,
37,383,
38,390,
39,397,
40,404,
41,413,
42,423,
43,434,
44,447,
45,461,
46,477,
47,494,
48,516,
49,547,
50,584,
51,612,
52,632,
53,647,
54,659,
55,669,
56,677,
57,685,
58,692,
59,699,
60,706,
61,713,
62,719,
63,726,
64,733,
65,741,
66,749,
67,758,
68,769,
69,781,
70,796,
71,814,
72,832,
73,849,
74,866,
75,882,
76,898,
77,915,
78,935,
79,961,
80,999,
81,1040,
82,1068,
83,1087,
84,1102,
85,1115,
86,1127,
87,1138,
88,1149,
89,1159,
90,1169,
91,1178,
92,1188,
93,1199,
94,1210,
95,1221,
96,1234,
97,1250,
98,1269,
99,1297,
100,1480,

