[Software Info]
Build,NTA 2.3 build 0033

[Sample Information]
Operator,""
Sample Description,"coffee"
Diluent,"aqua dest."
Concentration,"1:4"
Pre-treatmeant,""
Comments,""

[Results Summary]
Total Frames,2700
Processed Frames,2700
Valid Tracks,15564
Overall Drift (nm/s),1568.68
X-Drift (nm/s),-1107.36
Y-Drift (nm/s),1111.08
Calibration (nm/pixel),166

Size data - Model Fit,
Mean (nm),0.00
Standard Deviation (nm),0.00
Diffusion Coefficient Data,
Mode (E4 nm^2/s),280.00
Mean (E4 nm^2/s),733.28
Standard Deviation (E4 nm^2/s),457.79

User Line 1,205
User Line 2,588
Average # centres/frame,220.79
Average # particles/frame,161.46
Equivalent particle concentration (E8 particles/ml),25.10
Selected average # particles/frame,70.57
Selected equivalent particle concentration (E8 particles/ml),10.97

[Settings],
Background Extract,On
Brightness,0
Gain,1.00
Blur Size,Auto,
Detection Threshold Type,Multi,
Detection Threshold,20
Min Track Length,Auto
Min Expected Size (nm),Auto

[Measurement Conditions]
Camera Type,CCD
Camera Shutter (ms),8.00
Camera Gain,300
Frame rate (fps),30.00
Temperature (°C),23.90
Viscosity (cP),0.911

[Warnings]
Low Completed Tracks,No
High Noise,8 frames
Auto max jump,Successful
Drift off,No
Settings Changed Whilst Processing,No
Vibration detected,Vibration detected <~10% error
Additional Errors,None

[Graph Data]
Diffusion Coefficient (E4 nm²/s), Concentration (E6 particles / ml),,
0,0.0000,,
1,0.0000,,
2,0.0000,,
3,0.0000,,
4,0.0000,,
5,0.0000,,
6,0.0000,,
7,0.0000,,
8,0.0000,,
9,0.0000,,
10,0.0000,,
11,0.0000,,
12,0.0000,,
13,0.0000,,
14,0.0000,,
15,0.0000,,
16,0.0000,,
17,0.0000,,
18,0.0000,,
19,0.0000,,
20,0.0000,,
21,0.0000,,
22,0.0000,,
23,0.0000,,
24,0.0000,,
25,0.0000,,
26,0.0000,,
27,0.0000,,
28,0.0000,,
29,0.0000,,
30,0.0000,,
31,0.0000,,
32,0.0000,,
33,0.0000,,
34,0.0000,,
35,0.0000,,
36,0.0000,,
37,0.0000,,
38,0.0000,,
39,0.0000,,
40,0.0000,,
41,0.0000,,
42,0.0000,,
43,0.0000,,
44,0.0000,,
45,0.0001,,
46,0.0001,,
47,0.0003,,
48,0.0007,,
49,0.0015,,
50,0.0029,,
51,0.0054,,
52,0.0094,,
53,0.0156,,
54,0.0243,,
55,0.0357,,
56,0.0494,,
57,0.0645,,
58,0.0793,,
59,0.0920,,
60,0.1005,,
61,0.1036,,
62,0.1007,,
63,0.0924,,
64,0.0801,,
65,0.0658,,
66,0.0516,,
67,0.0392,,
68,0.0299,,
69,0.0241,,
70,0.0221,,
71,0.0236,,
72,0.0282,,
73,0.0357,,
74,0.0456,,
75,0.0575,,
76,0.0710,,
77,0.0853,,
78,0.0999,,
79,0.1138,,
80,0.1264,,
81,0.1367,,
82,0.1442,,
83,0.1484,,
84,0.1490,,
85,0.1464,,
86,0.1407,,
87,0.1327,,
88,0.1232,,
89,0.1132,,
90,0.1034,,
91,0.0947,,
92,0.0878,,
93,0.0831,,
94,0.0806,,
95,0.0805,,
96,0.0824,,
97,0.0860,,
98,0.0907,,
99,0.0961,,
100,0.1018,,
101,0.1074,,
102,0.1126,,
103,0.1173,,
104,0.1214,,
105,0.1250,,
106,0.1283,,
107,0.1314,,
108,0.1345,,
109,0.1381,,
110,0.1423,,
111,0.1472,,
112,0.1533,,
113,0.1605,,
114,0.1690,,
115,0.1789,,
116,0.1903,,
117,0.2031,,
118,0.2172,,
119,0.2326,,
120,0.2490,,
121,0.2665,,
122,0.2846,,
123,0.3032,,
124,0.3222,,
125,0.3414,,
126,0.3605,,
127,0.3796,,
128,0.3985,,
129,0.4173,,
130,0.4360,,
131,0.4548,,
132,0.4738,,
133,0.4933,,
134,0.5134,,
135,0.5346,,
136,0.5569,,
137,0.5808,,
138,0.6062,,
139,0.6335,,
140,0.6626,,
141,0.6937,,
142,0.7266,,
143,0.7613,,
144,0.7977,,
145,0.8354,,
146,0.8742,,
147,0.9139,,
148,0.9542,,
149,0.9948,,
150,1.0353,,
151,1.0756,,
152,1.1154,,
153,1.1544,,
154,1.1926,,
155,1.2297,,
156,1.2658,,
157,1.3007,,
158,1.3343,,
159,1.3668,,
160,1.3982,,
161,1.4284,,
162,1.4576,,
163,1.4858,,
164,1.5131,,
165,1.5396,,
166,1.5652,,
167,1.5901,,
168,1.6143,,
169,1.6378,,
170,1.6607,,
171,1.6831,,
172,1.7048,,
173,1.7261,,
174,1.7468,,
175,1.7671,,
176,1.7870,,
177,1.8065,,
178,1.8257,,
179,1.8449,,
180,1.8639,,
181,1.8829,,
182,1.9022,,
183,1.9217,,
184,1.9416,,
185,1.9622,,
186,1.9833,,
187,2.0054,,
188,2.0283,,
189,2.0523,,
190,2.0774,,
191,2.1036,,
192,2.1310,,
193,2.1596,,
194,2.1893,,
195,2.2202,,
196,2.2521,,
197,2.2851,,
198,2.3189,,
199,2.3535,,
200,2.3888,,
201,2.4246,,
202,2.4608,,
203,2.4973,,
204,2.5340,,
205,2.5707,,
206,2.6073,,
207,2.6437,,
208,2.6798,,
209,2.7154,,
210,2.7505,,
211,2.7850,,
212,2.8188,,
213,2.8518,,
214,2.8840,,
215,2.9152,,
216,2.9455,,
217,2.9748,,
218,3.0031,,
219,3.0302,,
220,3.0562,,
221,3.0811,,
222,3.1048,,
223,3.1274,,
224,3.1488,,
225,3.1691,,
226,3.1881,,
227,3.2061,,
228,3.2230,,
229,3.2388,,
230,3.2536,,
231,3.2675,,
232,3.2804,,
233,3.2926,,
234,3.3040,,
235,3.3148,,
236,3.3250,,
237,3.3346,,
238,3.3439,,
239,3.3528,,
240,3.3614,,
241,3.3699,,
242,3.3784,,
243,3.3867,,
244,3.3951,,
245,3.4037,,
246,3.4124,,
247,3.4213,,
248,3.4303,,
249,3.4397,,
250,3.4493,,
251,3.4592,,
252,3.4694,,
253,3.4799,,
254,3.4906,,
255,3.5014,,
256,3.5126,,
257,3.5238,,
258,3.5352,,
259,3.5465,,
260,3.5579,,
261,3.5692,,
262,3.5804,,
263,3.5914,,
264,3.6021,,
265,3.6126,,
266,3.6226,,
267,3.6322,,
268,3.6414,,
269,3.6499,,
270,3.6579,,
271,3.6653,,
272,3.6720,,
273,3.6780,,
274,3.6832,,
275,3.6878,,
276,3.6915,,
277,3.6945,,
278,3.6967,,
279,3.6981,,
280,3.6989,,
281,3.6988,,
282,3.6981,,
283,3.6966,,
284,3.6945,,
285,3.6918,,
286,3.6885,,
287,3.6846,,
288,3.6801,,
289,3.6752,,
290,3.6699,,
291,3.6642,,
292,3.6581,,
293,3.6517,,
294,3.6451,,
295,3.6382,,
296,3.6310,,
297,3.6237,,
298,3.6163,,
299,3.6088,,
300,3.6012,,
301,3.5934,,
302,3.5857,,
303,3.5779,,
304,3.5702,,
305,3.5624,,
306,3.5546,,
307,3.5468,,
308,3.5390,,
309,3.5314,,
310,3.5236,,
311,3.5160,,
312,3.5083,,
313,3.5007,,
314,3.4931,,
315,3.4855,,
316,3.4779,,
317,3.4702,,
318,3.4627,,
319,3.4551,,
320,3.4474,,
321,3.4398,,
322,3.4321,,
323,3.4244,,
324,3.4167,,
325,3.4089,,
326,3.4011,,
327,3.3932,,
328,3.3853,,
329,3.3774,,
330,3.3694,,
331,3.3613,,
332,3.3533,,
333,3.3452,,
334,3.3370,,
335,3.3288,,
336,3.3206,,
337,3.3124,,
338,3.3041,,
339,3.2958,,
340,3.2875,,
341,3.2793,,
342,3.2710,,
343,3.2627,,
344,3.2545,,
345,3.2462,,
346,3.2381,,
347,3.2299,,
348,3.2218,,
349,3.2138,,
350,3.2059,,
351,3.1980,,
352,3.1902,,
353,3.1824,,
354,3.1748,,
355,3.1673,,
356,3.1599,,
357,3.1526,,
358,3.1454,,
359,3.1383,,
360,3.1314,,
361,3.1246,,
362,3.1179,,
363,3.1114,,
364,3.1050,,
365,3.0987,,
366,3.0926,,
367,3.0867,,
368,3.0809,,
369,3.0752,,
370,3.0697,,
371,3.0643,,
372,3.0591,,
373,3.0540,,
374,3.0491,,
375,3.0443,,
376,3.0396,,
377,3.0351,,
378,3.0307,,
379,3.0264,,
380,3.0223,,
381,3.0183,,
382,3.0143,,
383,3.0105,,
384,3.0068,,
385,3.0032,,
386,2.9997,,
387,2.9962,,
388,2.9929,,
389,2.9896,,
390,2.9864,,
391,2.9832,,
392,2.9801,,
393,2.9771,,
394,2.9741,,
395,2.9711,,
396,2.9681,,
397,2.9652,,
398,2.9622,,
399,2.9593,,
400,2.9564,,
401,2.9535,,
402,2.9506,,
403,2.9476,,
404,2.9446,,
405,2.9416,,
406,2.9385,,
407,2.9354,,
408,2.9323,,
409,2.9291,,
410,2.9258,,
411,2.9225,,
412,2.9191,,
413,2.9156,,
414,2.9120,,
415,2.9083,,
416,2.9046,,
417,2.9007,,
418,2.8968,,
419,2.8927,,
420,2.8885,,
421,2.8842,,
422,2.8798,,
423,2.8753,,
424,2.8706,,
425,2.8659,,
426,2.8610,,
427,2.8560,,
428,2.8508,,
429,2.8456,,
430,2.8401,,
431,2.8346,,
432,2.8290,,
433,2.8232,,
434,2.8173,,
435,2.8112,,
436,2.8050,,
437,2.7988,,
438,2.7924,,
439,2.7859,,
440,2.7792,,
441,2.7725,,
442,2.7656,,
443,2.7587,,
444,2.7516,,
445,2.7444,,
446,2.7372,,
447,2.7298,,
448,2.7224,,
449,2.7149,,
450,2.7072,,
451,2.6996,,
452,2.6918,,
453,2.6840,,
454,2.6760,,
455,2.6681,,
456,2.6601,,
457,2.6520,,
458,2.6439,,
459,2.6357,,
460,2.6275,,
461,2.6192,,
462,2.6109,,
463,2.6026,,
464,2.5942,,
465,2.5859,,
466,2.5775,,
467,2.5691,,
468,2.5606,,
469,2.5522,,
470,2.5437,,
471,2.5353,,
472,2.5268,,
473,2.5184,,
474,2.5099,,
475,2.5015,,
476,2.4930,,
477,2.4846,,
478,2.4762,,
479,2.4678,,
480,2.4594,,
481,2.4511,,
482,2.4428,,
483,2.4345,,
484,2.4262,,
485,2.4180,,
486,2.4098,,
487,2.4017,,
488,2.3936,,
489,2.3856,,
490,2.3776,,
491,2.3696,,
492,2.3617,,
493,2.3538,,
494,2.3461,,
495,2.3384,,
496,2.3307,,
497,2.3231,,
498,2.3156,,
499,2.3081,,
500,2.3008,,
501,2.2934,,
502,2.2862,,
503,2.2791,,
504,2.2720,,
505,2.2650,,
506,2.2581,,
507,2.2513,,
508,2.2446,,
509,2.2379,,
510,2.2314,,
511,2.2249,,
512,2.2186,,
513,2.2123,,
514,2.2062,,
515,2.2001,,
516,2.1941,,
517,2.1883,,
518,2.1825,,
519,2.1769,,
520,2.1713,,
521,2.1658,,
522,2.1605,,
523,2.1552,,
524,2.1500,,
525,2.1450,,
526,2.1400,,
527,2.1351,,
528,2.1304,,
529,2.1257,,
530,2.1211,,
531,2.1166,,
532,2.1122,,
533,2.1079,,
534,2.1037,,
535,2.0995,,
536,2.0955,,
537,2.0915,,
538,2.0876,,
539,2.0838,,
540,2.0801,,
541,2.0764,,
542,2.0728,,
543,2.0693,,
544,2.0658,,
545,2.0624,,
546,2.0591,,
547,2.0558,,
548,2.0526,,
549,2.0494,,
550,2.0463,,
551,2.0432,,
552,2.0401,,
553,2.0371,,
554,2.0342,,
555,2.0312,,
556,2.0283,,
557,2.0255,,
558,2.0226,,
559,2.0198,,
560,2.0170,,
561,2.0142,,
562,2.0115,,
563,2.0087,,
564,2.0060,,
565,2.0033,,
566,2.0005,,
567,1.9978,,
568,1.9951,,
569,1.9924,,
570,1.9898,,
571,1.9871,,
572,1.9844,,
573,1.9817,,
574,1.9790,,
575,1.9763,,
576,1.9736,,
577,1.9709,,
578,1.9682,,
579,1.9655,,
580,1.9628,,
581,1.9601,,
582,1.9573,,
583,1.9546,,
584,1.9519,,
585,1.9491,,
586,1.9464,,
587,1.9436,,
588,1.9408,,
589,1.9380,,
590,1.9353,,
591,1.9325,,
592,1.9297,,
593,1.9269,,
594,1.9241,,
595,1.9213,,
596,1.9185,,
597,1.9157,,
598,1.9129,,
599,1.9101,,
600,1.9073,,
601,1.9045,,
602,1.9018,,
603,1.8990,,
604,1.8962,,
605,1.8934,,
606,1.8907,,
607,1.8879,,
608,1.8852,,
609,1.8825,,
610,1.8798,,
611,1.8770,,
612,1.8744,,
613,1.8717,,
614,1.8690,,
615,1.8664,,
616,1.8637,,
617,1.8611,,
618,1.8585,,
619,1.8560,,
620,1.8534,,
621,1.8508,,
622,1.8483,,
623,1.8458,,
624,1.8433,,
625,1.8408,,
626,1.8384,,
627,1.8359,,
628,1.8335,,
629,1.8311,,
630,1.8287,,
631,1.8264,,
632,1.8240,,
633,1.8217,,
634,1.8194,,
635,1.8171,,
636,1.8148,,
637,1.8125,,
638,1.8102,,
639,1.8080,,
640,1.8058,,
641,1.8036,,
642,1.8013,,
643,1.7991,,
644,1.7970,,
645,1.7948,,
646,1.7926,,
647,1.7904,,
648,1.7883,,
649,1.7861,,
650,1.7840,,
651,1.7819,,
652,1.7797,,
653,1.7776,,
654,1.7754,,
655,1.7733,,
656,1.7712,,
657,1.7690,,
658,1.7669,,
659,1.7647,,
660,1.7626,,
661,1.7605,,
662,1.7583,,
663,1.7562,,
664,1.7540,,
665,1.7518,,
666,1.7497,,
667,1.7475,,
668,1.7453,,
669,1.7431,,
670,1.7409,,
671,1.7387,,
672,1.7365,,
673,1.7342,,
674,1.7320,,
675,1.7298,,
676,1.7275,,
677,1.7252,,
678,1.7229,,
679,1.7207,,
680,1.7184,,
681,1.7161,,
682,1.7138,,
683,1.7114,,
684,1.7091,,
685,1.7068,,
686,1.7045,,
687,1.7021,,
688,1.6997,,
689,1.6974,,
690,1.6950,,
691,1.6927,,
692,1.6903,,
693,1.6879,,
694,1.6855,,
695,1.6831,,
696,1.6808,,
697,1.6784,,
698,1.6760,,
699,1.6736,,
700,1.6712,,
701,1.6688,,
702,1.6664,,
703,1.6640,,
704,1.6617,,
705,1.6593,,
706,1.6569,,
707,1.6545,,
708,1.6522,,
709,1.6498,,
710,1.6475,,
711,1.6451,,
712,1.6428,,
713,1.6405,,
714,1.6382,,
715,1.6359,,
716,1.6336,,
717,1.6313,,
718,1.6291,,
719,1.6268,,
720,1.6246,,
721,1.6223,,
722,1.6201,,
723,1.6179,,
724,1.6158,,
725,1.6136,,
726,1.6115,,
727,1.6093,,
728,1.6072,,
729,1.6051,,
730,1.6030,,
731,1.6010,,
732,1.5989,,
733,1.5969,,
734,1.5949,,
735,1.5929,,
736,1.5909,,
737,1.5890,,
738,1.5870,,
739,1.5851,,
740,1.5832,,
741,1.5814,,
742,1.5795,,
743,1.5777,,
744,1.5759,,
745,1.5741,,
746,1.5723,,
747,1.5706,,
748,1.5689,,
749,1.5672,,
750,1.5655,,
751,1.5638,,
752,1.5622,,
753,1.5606,,
754,1.5590,,
755,1.5574,,
756,1.5558,,
757,1.5543,,
758,1.5527,,
759,1.5512,,
760,1.5498,,
761,1.5483,,
762,1.5469,,
763,1.5454,,
764,1.5440,,
765,1.5427,,
766,1.5413,,
767,1.5400,,
768,1.5386,,
769,1.5373,,
770,1.5360,,
771,1.5348,,
772,1.5335,,
773,1.5323,,
774,1.5311,,
775,1.5299,,
776,1.5287,,
777,1.5276,,
778,1.5264,,
779,1.5253,,
780,1.5242,,
781,1.5231,,
782,1.5220,,
783,1.5209,,
784,1.5199,,
785,1.5189,,
786,1.5179,,
787,1.5168,,
788,1.5159,,
789,1.5149,,
790,1.5139,,
791,1.5130,,
792,1.5120,,
793,1.5111,,
794,1.5102,,
795,1.5093,,
796,1.5084,,
797,1.5075,,
798,1.5067,,
799,1.5058,,
800,1.5049,,
801,1.5041,,
802,1.5033,,
803,1.5025,,
804,1.5016,,
805,1.5008,,
806,1.5000,,
807,1.4992,,
808,1.4985,,
809,1.4977,,
810,1.4969,,
811,1.4961,,
812,1.4954,,
813,1.4946,,
814,1.4938,,
815,1.4931,,
816,1.4923,,
817,1.4916,,
818,1.4908,,
819,1.4901,,
820,1.4893,,
821,1.4886,,
822,1.4878,,
823,1.4871,,
824,1.4863,,
825,1.4855,,
826,1.4848,,
827,1.4840,,
828,1.4832,,
829,1.4825,,
830,1.4817,,
831,1.4809,,
832,1.4801,,
833,1.4793,,
834,1.4785,,
835,1.4777,,
836,1.4769,,
837,1.4761,,
838,1.4752,,
839,1.4744,,
840,1.4735,,
841,1.4727,,
842,1.4718,,
843,1.4709,,
844,1.4700,,
845,1.4691,,
846,1.4681,,
847,1.4672,,
848,1.4663,,
849,1.4653,,
850,1.4643,,
851,1.4633,,
852,1.4623,,
853,1.4613,,
854,1.4602,,
855,1.4592,,
856,1.4581,,
857,1.4570,,
858,1.4559,,
859,1.4548,,
860,1.4536,,
861,1.4525,,
862,1.4513,,
863,1.4501,,
864,1.4489,,
865,1.4476,,
866,1.4464,,
867,1.4451,,
868,1.4438,,
869,1.4425,,
870,1.4412,,
871,1.4398,,
872,1.4384,,
873,1.4370,,
874,1.4356,,
875,1.4342,,
876,1.4327,,
877,1.4312,,
878,1.4297,,
879,1.4282,,
880,1.4266,,
881,1.4251,,
882,1.4235,,
883,1.4219,,
884,1.4202,,
885,1.4186,,
886,1.4169,,
887,1.4152,,
888,1.4135,,
889,1.4117,,
890,1.4100,,
891,1.4082,,
892,1.4064,,
893,1.4046,,
894,1.4027,,
895,1.4009,,
896,1.3990,,
897,1.3971,,
898,1.3952,,
899,1.3933,,
900,1.3913,,
901,1.3893,,
902,1.3873,,
903,1.3853,,
904,1.3833,,
905,1.3812,,
906,1.3792,,
907,1.3771,,
908,1.3750,,
909,1.3729,,
910,1.3708,,
911,1.3686,,
912,1.3665,,
913,1.3643,,
914,1.3621,,
915,1.3599,,
916,1.3577,,
917,1.3555,,
918,1.3532,,
919,1.3510,,
920,1.3487,,
921,1.3464,,
922,1.3442,,
923,1.3419,,
924,1.3396,,
925,1.3372,,
926,1.3349,,
927,1.3326,,
928,1.3303,,
929,1.3279,,
930,1.3256,,
931,1.3232,,
932,1.3209,,
933,1.3185,,
934,1.3161,,
935,1.3138,,
936,1.3114,,
937,1.3090,,
938,1.3066,,
939,1.3043,,
940,1.3019,,
941,1.2995,,
942,1.2971,,
943,1.2947,,
944,1.2924,,
945,1.2900,,
946,1.2876,,
947,1.2853,,
948,1.2829,,
949,1.2805,,
950,1.2782,,
951,1.2758,,
952,1.2735,,
953,1.2711,,
954,1.2688,,
955,1.2665,,
956,1.2641,,
957,1.2618,,
958,1.2595,,
959,1.2572,,
960,1.2549,,
961,1.2527,,
962,1.2504,,
963,1.2482,,
964,1.2459,,
965,1.2437,,
966,1.2415,,
967,1.2393,,
968,1.2371,,
969,1.2349,,
970,1.2327,,
971,1.2306,,
972,1.2284,,
973,1.2263,,
974,1.2242,,
975,1.2221,,
976,1.2200,,
977,1.2180,,
978,1.2159,,
979,1.2139,,
980,1.2119,,
981,1.2099,,
982,1.2079,,
983,1.2060,,
984,1.2040,,
985,1.2021,,
986,1.2002,,
987,1.1983,,
988,1.1964,,
989,1.1946,,
990,1.1928,,
991,1.1910,,
992,1.1892,,
993,1.1874,,
994,1.1857,,
995,1.1839,,
996,1.1822,,
997,1.1805,,
998,1.1788,,
999,1.1772,,
1000,1.1755,,
1001,1.1739,,
1002,1.1723,,
1003,1.1708,,
1004,1.1692,,
1005,1.1677,,
1006,1.1662,,
1007,1.1647,,
1008,1.1632,,
1009,1.1617,,
1010,1.1603,,
1011,1.1589,,
1012,1.1575,,
1013,1.1561,,
1014,1.1547,,
1015,1.1534,,
1016,1.1521,,
1017,1.1507,,
1018,1.1495,,
1019,1.1482,,
1020,1.1469,,
1021,1.1457,,
1022,1.1445,,
1023,1.1433,,
1024,1.1421,,
1025,1.1409,,
1026,1.1398,,
1027,1.1386,,
1028,1.1375,,
1029,1.1364,,
1030,1.1353,,
1031,1.1343,,
1032,1.1332,,
1033,1.1322,,
1034,1.1311,,
1035,1.1301,,
1036,1.1291,,
1037,1.1281,,
1038,1.1272,,
1039,1.1262,,
1040,1.1253,,
1041,1.1243,,
1042,1.1234,,
1043,1.1225,,
1044,1.1216,,
1045,1.1207,,
1046,1.1198,,
1047,1.1190,,
1048,1.1181,,
1049,1.1173,,
1050,1.1164,,
1051,1.1156,,
1052,1.1148,,
1053,1.1140,,
1054,1.1132,,
1055,1.1124,,
1056,1.1116,,
1057,1.1108,,
1058,1.1100,,
1059,1.1093,,
1060,1.1085,,
1061,1.1077,,
1062,1.1070,,
1063,1.1063,,
1064,1.1055,,
1065,1.1048,,
1066,1.1041,,
1067,1.1033,,
1068,1.1026,,
1069,1.1019,,
1070,1.1012,,
1071,1.1005,,
1072,1.0998,,
1073,1.0991,,
1074,1.0984,,
1075,1.0977,,
1076,1.0969,,
1077,1.0962,,
1078,1.0955,,
1079,1.0948,,
1080,1.0941,,
1081,1.0934,,
1082,1.0927,,
1083,1.0920,,
1084,1.0913,,
1085,1.0906,,
1086,1.0899,,
1087,1.0892,,
1088,1.0885,,
1089,1.0878,,
1090,1.0871,,
1091,1.0864,,
1092,1.0856,,
1093,1.0849,,
1094,1.0842,,
1095,1.0835,,
1096,1.0827,,
1097,1.0820,,
1098,1.0812,,
1099,1.0805,,
1100,1.0797,,
1101,1.0790,,
1102,1.0782,,
1103,1.0775,,
1104,1.0767,,
1105,1.0759,,
1106,1.0751,,
1107,1.0743,,
1108,1.0735,,
1109,1.0727,,
1110,1.0719,,
1111,1.0711,,
1112,1.0703,,
1113,1.0694,,
1114,1.0686,,
1115,1.0677,,
1116,1.0669,,
1117,1.0660,,
1118,1.0651,,
1119,1.0643,,
1120,1.0634,,
1121,1.0625,,
1122,1.0616,,
1123,1.0606,,
1124,1.0597,,
1125,1.0588,,
1126,1.0578,,
1127,1.0569,,
1128,1.0559,,
1129,1.0550,,
1130,1.0540,,
1131,1.0530,,
1132,1.0520,,
1133,1.0510,,
1134,1.0500,,
1135,1.0490,,
1136,1.0479,,
1137,1.0469,,
1138,1.0458,,
1139,1.0448,,
1140,1.0437,,
1141,1.0426,,
1142,1.0415,,
1143,1.0404,,
1144,1.0393,,
1145,1.0382,,
1146,1.0370,,
1147,1.0359,,
1148,1.0347,,
1149,1.0336,,
1150,1.0324,,
1151,1.0312,,
1152,1.0300,,
1153,1.0288,,
1154,1.0276,,
1155,1.0264,,
1156,1.0251,,
1157,1.0239,,
1158,1.0226,,
1159,1.0214,,
1160,1.0201,,
1161,1.0188,,
1162,1.0175,,
1163,1.0162,,
1164,1.0149,,
1165,1.0136,,
1166,1.0122,,
1167,1.0109,,
1168,1.0096,,
1169,1.0082,,
1170,1.0068,,
1171,1.0054,,
1172,1.0041,,
1173,1.0027,,
1174,1.0013,,
1175,0.9998,,
1176,0.9984,,
1177,0.9970,,
1178,0.9955,,
1179,0.9941,,
1180,0.9926,,
1181,0.9912,,
1182,0.9897,,
1183,0.9882,,
1184,0.9867,,
1185,0.9852,,
1186,0.9837,,
1187,0.9822,,
1188,0.9807,,
1189,0.9791,,
1190,0.9776,,
1191,0.9761,,
1192,0.9745,,
1193,0.9730,,
1194,0.9714,,
1195,0.9698,,
1196,0.9683,,
1197,0.9667,,
1198,0.9651,,
1199,0.9635,,
1200,0.9619,,
1201,0.9603,,
1202,0.9587,,
1203,0.9571,,
1204,0.9555,,
1205,0.9538,,
1206,0.9522,,
1207,0.9506,,
1208,0.9489,,
1209,0.9473,,
1210,0.9457,,
1211,0.9440,,
1212,0.9424,,
1213,0.9407,,
1214,0.9390,,
1215,0.9374,,
1216,0.9357,,
1217,0.9340,,
1218,0.9324,,
1219,0.9307,,
1220,0.9290,,
1221,0.9273,,
1222,0.9257,,
1223,0.9240,,
1224,0.9223,,
1225,0.9206,,
1226,0.9189,,
1227,0.9173,,
1228,0.9156,,
1229,0.9139,,
1230,0.9122,,
1231,0.9105,,
1232,0.9088,,
1233,0.9071,,
1234,0.9054,,
1235,0.9038,,
1236,0.9021,,
1237,0.9004,,
1238,0.8987,,
1239,0.8970,,
1240,0.8953,,
1241,0.8936,,
1242,0.8920,,
1243,0.8903,,
1244,0.8886,,
1245,0.8869,,
1246,0.8853,,
1247,0.8836,,
1248,0.8819,,
1249,0.8803,,
1250,0.8786,,
1251,0.8770,,
1252,0.8753,,
1253,0.8736,,
1254,0.8720,,
1255,0.8704,,
1256,0.8687,,
1257,0.8671,,
1258,0.8654,,
1259,0.8638,,
1260,0.8622,,
1261,0.8606,,
1262,0.8589,,
1263,0.8573,,
1264,0.8557,,
1265,0.8541,,
1266,0.8525,,
1267,0.8509,,
1268,0.8493,,
1269,0.8478,,
1270,0.8462,,
1271,0.8446,,
1272,0.8430,,
1273,0.8415,,
1274,0.8399,,
1275,0.8384,,
1276,0.8368,,
1277,0.8353,,
1278,0.8338,,
1279,0.8322,,
1280,0.8307,,
1281,0.8292,,
1282,0.8277,,
1283,0.8262,,
1284,0.8247,,
1285,0.8232,,
1286,0.8217,,
1287,0.8202,,
1288,0.8188,,
1289,0.8173,,
1290,0.8158,,
1291,0.8144,,
1292,0.8130,,
1293,0.8115,,
1294,0.8101,,
1295,0.8087,,
1296,0.8072,,
1297,0.8058,,
1298,0.8044,,
1299,0.8030,,
1300,0.8016,,
1301,0.8003,,
1302,0.7989,,
1303,0.7975,,
1304,0.7962,,
1305,0.7948,,
1306,0.7935,,
1307,0.7921,,
1308,0.7908,,
1309,0.7895,,
1310,0.7881,,
1311,0.7868,,
1312,0.7855,,
1313,0.7842,,
1314,0.7829,,
1315,0.7816,,
1316,0.7804,,
1317,0.7791,,
1318,0.7778,,
1319,0.7766,,
1320,0.7753,,
1321,0.7741,,
1322,0.7728,,
1323,0.7716,,
1324,0.7704,,
1325,0.7692,,
1326,0.7679,,
1327,0.7667,,
1328,0.7655,,
1329,0.7643,,
1330,0.7632,,
1331,0.7620,,
1332,0.7608,,
1333,0.7596,,
1334,0.7585,,
1335,0.7573,,
1336,0.7562,,
1337,0.7550,,
1338,0.7539,,
1339,0.7528,,
1340,0.7516,,
1341,0.7505,,
1342,0.7494,,
1343,0.7483,,
1344,0.7472,,
1345,0.7461,,
1346,0.7450,,
1347,0.7439,,
1348,0.7428,,
1349,0.7417,,
1350,0.7407,,
1351,0.7396,,
1352,0.7385,,
1353,0.7375,,
1354,0.7364,,
1355,0.7354,,
1356,0.7343,,
1357,0.7333,,
1358,0.7323,,
1359,0.7312,,
1360,0.7302,,
1361,0.7292,,
1362,0.7282,,
1363,0.7272,,
1364,0.7262,,
1365,0.7252,,
1366,0.7242,,
1367,0.7232,,
1368,0.7222,,
1369,0.7212,,
1370,0.7202,,
1371,0.7192,,
1372,0.7183,,
1373,0.7173,,
1374,0.7163,,
1375,0.7153,,
1376,0.7144,,
1377,0.7134,,
1378,0.7125,,
1379,0.7115,,
1380,0.7106,,
1381,0.7096,,
1382,0.7087,,
1383,0.7078,,
1384,0.7068,,
1385,0.7059,,
1386,0.7049,,
1387,0.7040,,
1388,0.7031,,
1389,0.7022,,
1390,0.7012,,
1391,0.7003,,
1392,0.6994,,
1393,0.6985,,
1394,0.6976,,
1395,0.6967,,
1396,0.6958,,
1397,0.6949,,
1398,0.6940,,
1399,0.6931,,
1400,0.6922,,
1401,0.6913,,
1402,0.6904,,
1403,0.6895,,
1404,0.6886,,
1405,0.6877,,
1406,0.6868,,
1407,0.6859,,
1408,0.6850,,
1409,0.6842,,
1410,0.6833,,
1411,0.6824,,
1412,0.6815,,
1413,0.6806,,
1414,0.6798,,
1415,0.6789,,
1416,0.6780,,
1417,0.6771,,
1418,0.6763,,
1419,0.6754,,
1420,0.6745,,
1421,0.6737,,
1422,0.6728,,
1423,0.6719,,
1424,0.6711,,
1425,0.6702,,
1426,0.6693,,
1427,0.6685,,
1428,0.6676,,
1429,0.6667,,
1430,0.6659,,
1431,0.6650,,
1432,0.6642,,
1433,0.6633,,
1434,0.6624,,
1435,0.6616,,
1436,0.6607,,
1437,0.6599,,
1438,0.6590,,
1439,0.6582,,
1440,0.6573,,
1441,0.6564,,
1442,0.6556,,
1443,0.6547,,
1444,0.6539,,
1445,0.6530,,
1446,0.6522,,
1447,0.6513,,
1448,0.6505,,
1449,0.6496,,
1450,0.6488,,
1451,0.6479,,
1452,0.6471,,
1453,0.6462,,
1454,0.6454,,
1455,0.6445,,
1456,0.6437,,
1457,0.6428,,
1458,0.6420,,
1459,0.6411,,
1460,0.6403,,
1461,0.6394,,
1462,0.6386,,
1463,0.6377,,
1464,0.6369,,
1465,0.6360,,
1466,0.6352,,
1467,0.6343,,
1468,0.6335,,
1469,0.6326,,
1470,0.6318,,
1471,0.6309,,
1472,0.6301,,
1473,0.6292,,
1474,0.6284,,
1475,0.6275,,
1476,0.6267,,
1477,0.6258,,
1478,0.6250,,
1479,0.6241,,
1480,0.6233,,
1481,0.6224,,
1482,0.6216,,
1483,0.6207,,
1484,0.6199,,
1485,0.6190,,
1486,0.6182,,
1487,0.6173,,
1488,0.6165,,
1489,0.6156,,
1490,0.6148,,
1491,0.6139,,
1492,0.6131,,
1493,0.6122,,
1494,0.6114,,
1495,0.6106,,
1496,0.6097,,
1497,0.6089,,
1498,0.6080,,
1499,0.6072,,
1500,0.6063,,
1501,0.6055,,
1502,0.6046,,
1503,0.6038,,
1504,0.6029,,
1505,0.6021,,
1506,0.6012,,
1507,0.6004,,
1508,0.5996,,
1509,0.5987,,
1510,0.5979,,
1511,0.5970,,
1512,0.5962,,
1513,0.5953,,
1514,0.5945,,
1515,0.5937,,
1516,0.5928,,
1517,0.5920,,
1518,0.5911,,
1519,0.5903,,
1520,0.5895,,
1521,0.5886,,
1522,0.5878,,
1523,0.5869,,
1524,0.5861,,
1525,0.5853,,
1526,0.5844,,
1527,0.5836,,
1528,0.5827,,
1529,0.5819,,
1530,0.5811,,
1531,0.5802,,
1532,0.5794,,
1533,0.5785,,
1534,0.5777,,
1535,0.5769,,
1536,0.5760,,
1537,0.5752,,
1538,0.5744,,
1539,0.5735,,
1540,0.5727,,
1541,0.5719,,
1542,0.5710,,
1543,0.5702,,
1544,0.5694,,
1545,0.5686,,
1546,0.5677,,
1547,0.5669,,
1548,0.5661,,
1549,0.5652,,
1550,0.5644,,
1551,0.5636,,
1552,0.5628,,
1553,0.5619,,
1554,0.5611,,
1555,0.5603,,
1556,0.5595,,
1557,0.5587,,
1558,0.5578,,
1559,0.5570,,
1560,0.5562,,
1561,0.5554,,
1562,0.5546,,
1563,0.5537,,
1564,0.5529,,
1565,0.5521,,
1566,0.5513,,
1567,0.5505,,
1568,0.5497,,
1569,0.5488,,
1570,0.5480,,
1571,0.5472,,
1572,0.5464,,
1573,0.5456,,
1574,0.5448,,
1575,0.5440,,
1576,0.5432,,
1577,0.5424,,
1578,0.5416,,
1579,0.5408,,
1580,0.5399,,
1581,0.5391,,
1582,0.5383,,
1583,0.5375,,
1584,0.5367,,
1585,0.5359,,
1586,0.5351,,
1587,0.5343,,
1588,0.5335,,
1589,0.5327,,
1590,0.5319,,
1591,0.5311,,
1592,0.5304,,
1593,0.5296,,
1594,0.5288,,
1595,0.5280,,
1596,0.5272,,
1597,0.5264,,
1598,0.5256,,
1599,0.5248,,
1600,0.5240,,
1601,0.5232,,
1602,0.5224,,
1603,0.5217,,
1604,0.5209,,
1605,0.5201,,
1606,0.5193,,
1607,0.5185,,
1608,0.5177,,
1609,0.5169,,
1610,0.5162,,
1611,0.5154,,
1612,0.5146,,
1613,0.5138,,
1614,0.5130,,
1615,0.5123,,
1616,0.5115,,
1617,0.5107,,
1618,0.5099,,
1619,0.5092,,
1620,0.5084,,
1621,0.5076,,
1622,0.5068,,
1623,0.5061,,
1624,0.5053,,
1625,0.5045,,
1626,0.5038,,
1627,0.5030,,
1628,0.5022,,
1629,0.5014,,
1630,0.5007,,
1631,0.4999,,
1632,0.4991,,
1633,0.4984,,
1634,0.4976,,
1635,0.4968,,
1636,0.4961,,
1637,0.4953,,
1638,0.4946,,
1639,0.4938,,
1640,0.4930,,
1641,0.4923,,
1642,0.4915,,
1643,0.4907,,
1644,0.4900,,
1645,0.4892,,
1646,0.4885,,
1647,0.4877,,
1648,0.4869,,
1649,0.4862,,
1650,0.4854,,
1651,0.4847,,
1652,0.4839,,
1653,0.4831,,
1654,0.4824,,
1655,0.4816,,
1656,0.4809,,
1657,0.4801,,
1658,0.4793,,
1659,0.4786,,
1660,0.4778,,
1661,0.4771,,
1662,0.4763,,
1663,0.4756,,
1664,0.4748,,
1665,0.4740,,
1666,0.4733,,
1667,0.4725,,
1668,0.4718,,
1669,0.4710,,
1670,0.4703,,
1671,0.4695,,
1672,0.4688,,
1673,0.4680,,
1674,0.4672,,
1675,0.4665,,
1676,0.4657,,
1677,0.4650,,
1678,0.4642,,
1679,0.4635,,
1680,0.4627,,
1681,0.4619,,
1682,0.4612,,
1683,0.4604,,
1684,0.4597,,
1685,0.4589,,
1686,0.4582,,
1687,0.4574,,
1688,0.4566,,
1689,0.4559,,
1690,0.4551,,
1691,0.4544,,
1692,0.4536,,
1693,0.4528,,
1694,0.4521,,
1695,0.4513,,
1696,0.4505,,
1697,0.4498,,
1698,0.4490,,
1699,0.4483,,
1700,0.4475,,
1701,0.4467,,
1702,0.4460,,
1703,0.4452,,
1704,0.4444,,
1705,0.4437,,
1706,0.4429,,
1707,0.4421,,
1708,0.4414,,
1709,0.4406,,
1710,0.4398,,
1711,0.4390,,
1712,0.4383,,
1713,0.4375,,
1714,0.4367,,
1715,0.4360,,
1716,0.4352,,
1717,0.4344,,
1718,0.4336,,
1719,0.4329,,
1720,0.4321,,
1721,0.4313,,
1722,0.4305,,
1723,0.4297,,
1724,0.4290,,
1725,0.4282,,
1726,0.4274,,
1727,0.4266,,
1728,0.4258,,
1729,0.4250,,
1730,0.4242,,
1731,0.4235,,
1732,0.4227,,
1733,0.4219,,
1734,0.4211,,
1735,0.4203,,
1736,0.4195,,
1737,0.4187,,
1738,0.4179,,
1739,0.4171,,
1740,0.4163,,
1741,0.4155,,
1742,0.4147,,
1743,0.4139,,
1744,0.4131,,
1745,0.4123,,
1746,0.4115,,
1747,0.4107,,
1748,0.4099,,
1749,0.4091,,
1750,0.4083,,
1751,0.4075,,
1752,0.4066,,
1753,0.4058,,
1754,0.4050,,
1755,0.4042,,
1756,0.4034,,
1757,0.4026,,
1758,0.4017,,
1759,0.4009,,
1760,0.4001,,
1761,0.3993,,
1762,0.3984,,
1763,0.3976,,
1764,0.3968,,
1765,0.3959,,
1766,0.3951,,
1767,0.3943,,
1768,0.3934,,
1769,0.3926,,
1770,0.3918,,
1771,0.3909,,
1772,0.3901,,
1773,0.3892,,
1774,0.3884,,
1775,0.3875,,
1776,0.3867,,
1777,0.3859,,
1778,0.3850,,
1779,0.3841,,
1780,0.3833,,
1781,0.3824,,
1782,0.3816,,
1783,0.3807,,
1784,0.3799,,
1785,0.3790,,
1786,0.3781,,
1787,0.3773,,
1788,0.3764,,
1789,0.3755,,
1790,0.3747,,
1791,0.3738,,
1792,0.3729,,
1793,0.3720,,
1794,0.3711,,
1795,0.3703,,
1796,0.3694,,
1797,0.3685,,
1798,0.3676,,
1799,0.3667,,
1800,0.3658,,
1801,0.3649,,
1802,0.3641,,
1803,0.3632,,
1804,0.3623,,
1805,0.3614,,
1806,0.3605,,
1807,0.3596,,
1808,0.3587,,
1809,0.3578,,
1810,0.3568,,
1811,0.3559,,
1812,0.3550,,
1813,0.3541,,
1814,0.3532,,
1815,0.3523,,
1816,0.3514,,
1817,0.3504,,
1818,0.3495,,
1819,0.3486,,
1820,0.3477,,
1821,0.3467,,
1822,0.3458,,
1823,0.3449,,
1824,0.3439,,
1825,0.3430,,
1826,0.3421,,
1827,0.3411,,
1828,0.3402,,
1829,0.3392,,
1830,0.3383,,
1831,0.3373,,
1832,0.3364,,
1833,0.3354,,
1834,0.3345,,
1835,0.3335,,
1836,0.3326,,
1837,0.3316,,
1838,0.3307,,
1839,0.3297,,
1840,0.3287,,
1841,0.3278,,
1842,0.3268,,
1843,0.3258,,
1844,0.3248,,
1845,0.3239,,
1846,0.3229,,
1847,0.3219,,
1848,0.3209,,
1849,0.3199,,
1850,0.3190,,
1851,0.3180,,
1852,0.3170,,
1853,0.3160,,
1854,0.3150,,
1855,0.3140,,
1856,0.3130,,
1857,0.3120,,
1858,0.3110,,
1859,0.3100,,
1860,0.3090,,
1861,0.3080,,
1862,0.3070,,
1863,0.3060,,
1864,0.3050,,
1865,0.3039,,
1866,0.3029,,
1867,0.3019,,
1868,0.3009,,
1869,0.2999,,
1870,0.2988,,
1871,0.2978,,
1872,0.2968,,
1873,0.2958,,
1874,0.2947,,
1875,0.2937,,
1876,0.2927,,
1877,0.2916,,
1878,0.2906,,
1879,0.2896,,
1880,0.2885,,
1881,0.2875,,
1882,0.2864,,
1883,0.2854,,
1884,0.2843,,
1885,0.2833,,
1886,0.2822,,
1887,0.2812,,
1888,0.2801,,
1889,0.2791,,
1890,0.2780,,
1891,0.2769,,
1892,0.2759,,
1893,0.2748,,
1894,0.2738,,
1895,0.2727,,
1896,0.2716,,
1897,0.2706,,
1898,0.2695,,
1899,0.2684,,
1900,0.2673,,
1901,0.2663,,
1902,0.2652,,
1903,0.2641,,
1904,0.2630,,
1905,0.2620,,
1906,0.2609,,
1907,0.2598,,
1908,0.2587,,
1909,0.2576,,
1910,0.2565,,
1911,0.2554,,
1912,0.2544,,
1913,0.2533,,
1914,0.2522,,
1915,0.2511,,
1916,0.2500,,
1917,0.2489,,
1918,0.2478,,
1919,0.2467,,
1920,0.2456,,
1921,0.2445,,
1922,0.2434,,
1923,0.2423,,
1924,0.2412,,
1925,0.2401,,
1926,0.2390,,
1927,0.2379,,
1928,0.2368,,
1929,0.2357,,
1930,0.2346,,
1931,0.2335,,
1932,0.2323,,
1933,0.2312,,
1934,0.2301,,
1935,0.2290,,
1936,0.2279,,
1937,0.2268,,
1938,0.2257,,
1939,0.2246,,
1940,0.2235,,
1941,0.2223,,
1942,0.2212,,
1943,0.2201,,
1944,0.2190,,
1945,0.2179,,
1946,0.2168,,
1947,0.2157,,
1948,0.2145,,
1949,0.2134,,
1950,0.2123,,
1951,0.2112,,
1952,0.2101,,
1953,0.2090,,
1954,0.2079,,
1955,0.2067,,
1956,0.2056,,
1957,0.2045,,
1958,0.2034,,
1959,0.2023,,
1960,0.2012,,
1961,0.2001,,
1962,0.1989,,
1963,0.1978,,
1964,0.1967,,
1965,0.1956,,
1966,0.1945,,
1967,0.1934,,
1968,0.1923,,
1969,0.1912,,
1970,0.1900,,
1971,0.1889,,
1972,0.1878,,
1973,0.1867,,
1974,0.1856,,
1975,0.1845,,
1976,0.1834,,
1977,0.1823,,
1978,0.1812,,
1979,0.1801,,
1980,0.1790,,
1981,0.1779,,
1982,0.1768,,
1983,0.1757,,
1984,0.1746,,
1985,0.1735,,
1986,0.1724,,
1987,0.1713,,
1988,0.1702,,
1989,0.1691,,
1990,0.1681,,
1991,0.1670,,
1992,0.1659,,
1993,0.1648,,
1994,0.1637,,
1995,0.1626,,
1996,0.1616,,
1997,0.1605,,
1998,0.1594,,
1999,0.1583,,

[Histogram Data]
Binwidth,4
Diffusion Coefficient (E4 nm²/s), Concentration (E6 particles / ml),,
2.0,0.0000,,
6.0,0.0000,,
10.0,0.0000,,
14.0,0.0000,,
18.0,0.0000,,
22.0,0.0000,,
26.0,0.0000,,
30.0,0.0000,,
34.0,0.0000,,
38.0,0.0000,,
42.0,0.0000,,
46.0,0.0000,,
50.0,0.0000,,
54.0,0.0000,,
58.0,0.0000,,
62.0,1.0665,,
66.0,0.0000,,
70.0,0.0000,,
74.0,0.0000,,
78.0,0.0000,,
82.0,0.7046,,
86.0,1.5426,,
90.0,0.0000,,
94.0,0.0000,,
98.0,0.0000,,
102.0,1.0474,,
106.0,0.2476,,
110.0,0.8380,,
114.0,0.2666,,
118.0,0.5332,,
122.0,0.6475,,
126.0,1.9044,,
130.0,1.4283,,
134.0,2.7805,,
138.0,0.7808,,
142.0,1.2569,,
146.0,3.1042,,
150.0,4.9325,,
154.0,3.7518,,
158.0,7.0464,,
162.0,5.3324,,
166.0,4.6468,,
170.0,7.8463,,
174.0,6.2085,,
178.0,9.6555,,
182.0,6.9893,,
186.0,7.3321,,
190.0,5.9228,,
194.0,6.6084,,
198.0,10.4173,,
202.0,7.4273,,
206.0,14.2833,,
210.0,8.1891,,
214.0,11.3124,,
218.0,9.6365,,
222.0,17.5018,,
226.0,12.6836,,
230.0,12.3598,,
234.0,14.6832,,
238.0,12.9692,,
242.0,12.9312,,
246.0,12.7598,,
250.0,13.7310,,
254.0,11.6171,,
258.0,13.8643,,
262.0,12.7978,,
266.0,15.9402,,
270.0,16.5496,,
274.0,15.5402,,
278.0,17.8637,,
282.0,14.6832,,
286.0,14.4738,,
290.0,13.1216,,
294.0,15.0070,,
298.0,15.5022,,
302.0,11.5409,,
306.0,15.3498,,
310.0,15.3308,,
314.0,10.4744,,
318.0,16.2449,,
322.0,16.4925,,
326.0,13.0264,,
330.0,13.1597,,
334.0,11.8456,,
338.0,13.1978,,
342.0,14.3976,,
346.0,13.1406,,
350.0,14.6071,,
354.0,10.1507,,
358.0,12.7217,,
362.0,13.6548,,
366.0,10.2840,,
370.0,10.9886,,
374.0,12.0551,,
378.0,12.0932,,
382.0,15.9021,,
386.0,10.3030,,
390.0,12.2265,,
394.0,9.2175,,
398.0,12.0170,,
402.0,10.6839,,
406.0,12.5312,,
410.0,12.1503,,
414.0,11.2933,,
418.0,11.9789,,
422.0,15.2165,,
426.0,12.4360,,
430.0,10.0364,,
434.0,9.6174,,
438.0,10.1888,,
442.0,11.8266,,
446.0,14.3785,,
450.0,11.9599,,
454.0,11.8266,,
458.0,8.8557,,
462.0,7.6559,,
466.0,10.0555,,
470.0,11.2743,,
474.0,10.1126,,
478.0,12.0551,,
482.0,9.7698,,
486.0,9.0080,,
490.0,10.9886,,
494.0,7.0655,,
498.0,12.2456,,
502.0,8.3415,,
506.0,7.7892,,
510.0,8.1129,,
514.0,8.0748,,
518.0,9.6936,,
522.0,7.5035,,
526.0,8.7604,,
530.0,5.9419,,
534.0,9.3889,,
538.0,10.4173,,
542.0,5.5038,,
546.0,8.5890,,
550.0,5.6562,,
554.0,8.9318,,
558.0,9.2365,,
562.0,10.4363,,
566.0,6.6275,,
570.0,9.2937,,
574.0,5.5800,,
578.0,9.8841,,
582.0,9.5222,,
586.0,5.2563,,
590.0,9.0271,,
594.0,6.7989,,
598.0,9.7127,,
602.0,7.4083,,
606.0,8.9128,,
610.0,6.4561,,
614.0,7.0845,,
618.0,6.2466,,
622.0,6.9512,,
626.0,4.6659,,
630.0,9.3318,,
634.0,5.9038,,
638.0,7.1226,,
642.0,8.4176,,
646.0,5.6943,,
650.0,6.5894,,
654.0,6.5703,,
658.0,7.7511,,
662.0,9.8079,,
666.0,9.0461,,
670.0,7.8844,,
674.0,7.4083,,
678.0,6.3227,,
682.0,6.7417,,
686.0,5.9228,,
690.0,6.7036,,
694.0,5.4086,,
698.0,7.1988,,
702.0,5.9419,,
706.0,7.9415,,
710.0,6.0371,,
714.0,5.6943,,
718.0,4.0945,,
722.0,6.1133,,
726.0,8.2653,,
730.0,8.4748,,
734.0,7.7701,,
738.0,5.5610,,
742.0,5.4848,,
746.0,5.8466,,
750.0,6.7989,,
754.0,6.5894,,
758.0,5.1991,,
762.0,6.0371,,
766.0,5.5991,,
770.0,3.9803,,
774.0,4.7801,,
778.0,7.9415,,
782.0,5.6371,,
786.0,6.1704,,
790.0,8.8557,,
794.0,6.2275,,
798.0,6.6275,,
802.0,3.2756,,
806.0,5.6943,,
810.0,5.7133,,
814.0,6.6846,,
818.0,6.0180,,
822.0,4.2850,,
826.0,5.4277,,
830.0,5.9990,,
834.0,5.6752,,
838.0,7.0464,,
842.0,5.9038,,
846.0,5.9609,,
850.0,5.4848,,
854.0,8.9128,,
858.0,7.3131,,
862.0,5.1420,,
866.0,4.8563,,
870.0,6.0561,,
874.0,3.7708,,
878.0,5.0277,,
882.0,6.9322,,
886.0,7.0274,,
890.0,5.8085,,
894.0,4.8182,,
898.0,6.7417,,
902.0,6.6655,,
906.0,5.7895,,
910.0,5.8085,,
914.0,6.3037,,
918.0,4.6659,,
922.0,6.7798,,
926.0,4.2469,,
930.0,7.0083,,
934.0,4.9896,,
938.0,5.4277,,
942.0,5.8847,,
946.0,4.5897,,
950.0,6.3037,,
954.0,3.5994,,
958.0,5.0849,,
962.0,4.8563,,
966.0,4.2469,,
970.0,4.5707,,
974.0,5.4848,,
978.0,4.7801,,
982.0,3.4090,,
986.0,4.8373,,
990.0,4.9706,,
994.0,3.5613,,
998.0,4.3040,,
1002.0,4.0945,,
1006.0,4.0374,,
1010.0,4.3231,,
1014.0,4.0565,,
1018.0,4.6087,,
1022.0,4.8944,,
1026.0,4.3612,,
1030.0,4.1707,,
1034.0,4.2850,,
1038.0,3.7327,,
1042.0,4.4564,,
1046.0,4.9706,,
1050.0,4.9706,,
1054.0,6.2275,,
1058.0,4.9706,,
1062.0,3.8089,,
1066.0,4.2279,,
1070.0,5.5038,,
1074.0,3.6184,,
1078.0,3.8089,,
1082.0,2.6662,,
1086.0,4.8373,,
1090.0,3.5423,,
1094.0,5.5991,,
1098.0,4.6278,,
1102.0,2.9709,,
1106.0,4.9896,,
1110.0,5.4848,,
1114.0,3.0852,,
1118.0,4.0184,,
1122.0,4.3231,,
1126.0,4.2659,,
1130.0,5.9419,,
1134.0,3.5994,,
1138.0,3.1423,,
1142.0,4.8754,,
1146.0,5.5419,,
1150.0,4.0755,,
1154.0,4.9515,,
1158.0,4.5516,,
1162.0,5.5800,,
1166.0,3.8470,,
1170.0,4.9135,,
1174.0,3.9993,,
1178.0,4.3231,,
1182.0,3.9041,,
1186.0,4.2850,,
1190.0,5.2943,,
1194.0,2.5520,,
1198.0,2.7995,,
1202.0,4.0755,,
1206.0,4.7230,,
1210.0,3.6756,,
1214.0,3.9232,,
1218.0,3.7137,,
1222.0,4.7992,,
1226.0,2.6472,,
1230.0,3.6375,,
1234.0,4.4564,,
1238.0,4.3612,,
1242.0,2.4758,,
1246.0,3.2947,,
1250.0,4.0374,,
1254.0,3.5994,,
1258.0,3.6565,,
1262.0,3.6565,,
1266.0,3.1804,,
1270.0,3.2947,,
1274.0,2.1901,,
1278.0,2.8567,,
1282.0,3.1804,,
1286.0,2.7234,,
1290.0,3.1042,,
1294.0,3.5042,,
1298.0,3.6946,,
1302.0,3.1042,,
1306.0,1.8664,,
1310.0,2.6662,,
1314.0,2.9519,,
1318.0,1.9616,,
1322.0,3.7898,,
1326.0,3.1804,,
1330.0,3.0852,,
1334.0,2.2282,,
1338.0,4.9515,,
1342.0,2.0949,,
1346.0,2.3234,,
1350.0,3.0662,,
1354.0,3.8089,,
1358.0,2.2472,,
1362.0,3.5042,,
1366.0,2.9519,,
1370.0,3.6756,,
1374.0,3.8851,,
1378.0,1.3331,,
1382.0,3.4661,,
1386.0,2.7614,,
1390.0,3.9422,,
1394.0,1.9997,,
1398.0,2.8757,,
1402.0,2.6091,,
1406.0,2.4567,,
1410.0,1.9425,,
1414.0,2.5710,,
1418.0,2.9900,,
1422.0,2.3806,,
1426.0,2.8567,,
1430.0,3.9612,,
1434.0,2.1139,,
1438.0,1.7330,,
1442.0,2.1139,,
1446.0,3.3518,,
1450.0,2.6281,,
1454.0,2.1901,,
1458.0,1.8854,,
1462.0,3.7137,,
1466.0,2.7995,,
1470.0,2.7995,,
1474.0,2.5710,,
1478.0,2.3425,,
1482.0,2.4186,,
1486.0,2.2853,,
1490.0,3.7327,,
1494.0,2.9138,,
1498.0,2.5900,,
1502.0,2.4567,,
1506.0,2.3996,,
1510.0,2.0187,,
1514.0,2.4377,,
1518.0,2.5710,,
1522.0,3.4470,,
1526.0,1.7330,,
1530.0,2.6091,,
1534.0,2.7805,,
1538.0,2.0758,,
1542.0,2.4377,,
1546.0,1.6378,,
1550.0,1.9044,,
1554.0,1.1046,,
1558.0,1.1998,,
1562.0,2.0568,,
1566.0,2.6281,,
1570.0,2.4567,,
1574.0,1.8664,,
1578.0,2.9900,,
1582.0,1.8854,,
1586.0,1.5616,,
1590.0,3.4661,,
1594.0,1.5997,,
1598.0,2.3425,,
1602.0,2.1139,,
1606.0,1.9806,,
1610.0,1.5807,,
1614.0,2.4948,,
1618.0,2.1901,,
1622.0,2.0378,,
1626.0,3.2756,,
1630.0,1.9425,,
1634.0,2.2663,,
1638.0,0.6856,,
1642.0,2.1139,,
1646.0,2.7995,,
1650.0,1.5045,,
1654.0,1.9425,,
1658.0,1.5236,,
1662.0,1.2760,,
1666.0,2.3996,,
1670.0,2.9138,,
1674.0,1.0474,,
1678.0,1.5236,,
1682.0,1.1046,,
1686.0,1.8473,,
1690.0,1.7902,,
1694.0,1.8854,,
1698.0,1.9235,,
1702.0,1.6188,,
1706.0,2.4948,,
1710.0,1.3522,,
1714.0,2.0568,,
1718.0,1.5807,,
1722.0,2.2663,,
1726.0,1.7140,,
1730.0,1.5426,,
1734.0,1.9235,,
1738.0,1.9235,,
1742.0,2.2663,,
1746.0,1.9616,,
1750.0,3.1995,,
1754.0,1.7711,,
1758.0,1.7330,,
1762.0,1.6759,,
1766.0,1.9806,,
1770.0,1.4283,,
1774.0,1.7140,,
1778.0,1.7711,,
1782.0,1.6759,,
1786.0,1.3712,,
1790.0,1.6950,,
1794.0,0.8760,,
1798.0,0.8189,,
1802.0,1.1236,,
1806.0,1.7711,,
1810.0,1.6188,,
1814.0,1.0665,,
1818.0,1.4283,,
1822.0,1.0855,,
1826.0,1.7330,,
1830.0,0.6856,,
1834.0,1.5045,,
1838.0,1.6950,,
1842.0,0.8189,,
1846.0,1.2188,,
1850.0,1.2379,,
1854.0,0.9903,,
1858.0,1.2379,,
1862.0,0.7427,,
1866.0,1.9806,,
1870.0,1.1236,,
1874.0,1.6188,,
1878.0,1.8854,,
1882.0,0.8189,,
1886.0,1.5426,,
1890.0,1.7330,,
1894.0,1.3902,,
1898.0,1.5997,,
1902.0,1.4093,,
1906.0,0.6856,,
1910.0,1.4664,,
1914.0,1.8092,,
1918.0,1.9616,,
1922.0,1.5426,,
1926.0,1.4283,,
1930.0,1.0474,,
1934.0,1.8473,,
1938.0,1.2569,,
1942.0,0.5904,,
1946.0,1.3522,,
1950.0,1.2569,,
1954.0,1.0855,,
1958.0,1.0094,,
1962.0,1.4474,,
1966.0,1.6378,,
1970.0,0.7237,,
1974.0,1.1808,,
1978.0,0.8570,,
1982.0,1.6759,,
1986.0,1.5616,,
1990.0,1.2188,,
1994.0,0.8570,,
1998.0,0.7618,,

[Percentile Undersize]
Percentile,Diffusion Coefficient (E4 nm²/s),
0,45,
1,151,
2,169,
3,183,
4,195,
5,206,
6,215,
7,223,
8,231,
9,238,
10,246,
11,253,
12,260,
13,267,
14,274,
15,281,
16,288,
17,295,
18,302,
19,309,
20,316,
21,323,
22,330,
23,338,
24,346,
25,353,
26,361,
27,370,
28,378,
29,386,
30,394,
31,403,
32,412,
33,420,
34,429,
35,438,
36,447,
37,456,
38,466,
39,476,
40,486,
41,497,
42,508,
43,519,
44,531,
45,543,
46,555,
47,567,
48,580,
49,593,
50,606,
51,619,
52,633,
53,647,
54,661,
55,675,
56,690,
57,705,
58,720,
59,736,
60,752,
61,768,
62,785,
63,801,
64,818,
65,835,
66,852,
67,869,
68,887,
69,905,
70,923,
71,942,
72,962,
73,982,
74,1003,
75,1025,
76,1047,
77,1070,
78,1093,
79,1116,
80,1140,
81,1165,
82,1190,
83,1216,
84,1243,
85,1272,
86,1303,
87,1335,
88,1369,
89,1405,
90,1442,
91,1482,
92,1523,
93,1568,
94,1615,
95,1666,
96,1721,
97,1783,
98,1855,
99,1950,
100,1999,

