[Software Info]
Build,NTA 2.3 build 0033

[Sample Information]
Operator,""
Sample Description,"coffee"
Diluent,"aqua dest."
Concentration,"1:9"
Pre-treatmeant,""
Comments,""

[Results Summary]
Total Frames,1800
Processed Frames,1800
Valid Tracks,6264
Overall Drift (nm/s),299.97
X-Drift (nm/s),-273.37
Y-Drift (nm/s),123.48
Calibration (nm/pixel),166

Size data - Model Fit,
Mean (nm),0.00
Standard Deviation (nm),0.00
Diffusion Coefficient Data,
Mode (E4 nm^2/s),249.00
Mean (E4 nm^2/s),377.60
Standard Deviation (E4 nm^2/s),193.78

User Line 1,354
User Line 2,0
Average # centres/frame,98.47
Average # particles/frame,81.00
Equivalent particle concentration (E8 particles/ml),12.17
Selected average # particles/frame,0.00
Selected equivalent particle concentration (E8 particles/ml),0.00

[Settings],
Background Extract,On
Brightness,0
Gain,1.00
Blur Size,Auto,
Detection Threshold Type,Multi,
Detection Threshold,22
Min Track Length,Auto
Min Expected Size (nm),Auto

[Measurement Conditions]
Camera Type,CCD
Camera Shutter (ms),10.00
Camera Gain,339
Frame rate (fps),30.00
Temperature (°C),24.00
Viscosity (cP),0.909

[Warnings]
Low Completed Tracks,No
High Noise,0 frames
Auto max jump,Successful
Drift off,No
Settings Changed Whilst Processing,No
Vibration detected,No vibration detected
Additional Errors,None

[Graph Data]
Diffusion Coefficient (E4 nm²/s), Concentration (E6 particles / ml),,
0,0.0000,,
1,0.0000,,
2,0.0000,,
3,0.0000,,
4,0.0000,,
5,0.0000,,
6,0.0000,,
7,0.0000,,
8,0.0000,,
9,0.0000,,
10,0.0000,,
11,0.0000,,
12,0.0000,,
13,0.0000,,
14,0.0000,,
15,0.0000,,
16,0.0000,,
17,0.0000,,
18,0.0000,,
19,0.0000,,
20,0.0000,,
21,0.0000,,
22,0.0000,,
23,0.0000,,
24,0.0000,,
25,0.0000,,
26,0.0000,,
27,0.0000,,
28,0.0000,,
29,0.0000,,
30,0.0000,,
31,0.0000,,
32,0.0000,,
33,0.0000,,
34,0.0000,,
35,0.0000,,
36,0.0000,,
37,0.0000,,
38,0.0000,,
39,0.0000,,
40,0.0000,,
41,0.0000,,
42,0.0000,,
43,0.0000,,
44,0.0000,,
45,0.0000,,
46,0.0000,,
47,0.0000,,
48,0.0000,,
49,0.0000,,
50,0.0000,,
51,0.0000,,
52,0.0000,,
53,0.0000,,
54,0.0000,,
55,0.0000,,
56,0.0000,,
57,0.0000,,
58,0.0000,,
59,0.0000,,
60,0.0000,,
61,0.0000,,
62,0.0000,,
63,0.0000,,
64,0.0000,,
65,0.0000,,
66,0.0000,,
67,0.0000,,
68,0.0000,,
69,0.0000,,
70,0.0000,,
71,0.0001,,
72,0.0001,,
73,0.0002,,
74,0.0003,,
75,0.0005,,
76,0.0007,,
77,0.0011,,
78,0.0017,,
79,0.0025,,
80,0.0035,,
81,0.0049,,
82,0.0068,,
83,0.0090,,
84,0.0117,,
85,0.0149,,
86,0.0185,,
87,0.0225,,
88,0.0268,,
89,0.0312,,
90,0.0357,,
91,0.0400,,
92,0.0441,,
93,0.0479,,
94,0.0513,,
95,0.0544,,
96,0.0573,,
97,0.0600,,
98,0.0628,,
99,0.0658,,
100,0.0692,,
101,0.0732,,
102,0.0778,,
103,0.0833,,
104,0.0895,,
105,0.0966,,
106,0.1044,,
107,0.1129,,
108,0.1221,,
109,0.1317,,
110,0.1418,,
111,0.1523,,
112,0.1632,,
113,0.1745,,
114,0.1863,,
115,0.1987,,
116,0.2118,,
117,0.2259,,
118,0.2411,,
119,0.2576,,
120,0.2757,,
121,0.2955,,
122,0.3171,,
123,0.3406,,
124,0.3661,,
125,0.3937,,
126,0.4233,,
127,0.4547,,
128,0.4880,,
129,0.5229,,
130,0.5592,,
131,0.5969,,
132,0.6356,,
133,0.6751,,
134,0.7154,,
135,0.7561,,
136,0.7971,,
137,0.8383,,
138,0.8796,,
139,0.9207,,
140,0.9619,,
141,1.0029,,
142,1.0439,,
143,1.0849,,
144,1.1260,,
145,1.1673,,
146,1.2090,,
147,1.2513,,
148,1.2942,,
149,1.3381,,
150,1.3829,,
151,1.4289,,
152,1.4762,,
153,1.5248,,
154,1.5749,,
155,1.6264,,
156,1.6792,,
157,1.7334,,
158,1.7887,,
159,1.8451,,
160,1.9021,,
161,1.9598,,
162,2.0177,,
163,2.0756,,
164,2.1331,,
165,2.1900,,
166,2.2459,,
167,2.3006,,
168,2.3537,,
169,2.4052,,
170,2.4548,,
171,2.5024,,
172,2.5479,,
173,2.5913,,
174,2.6325,,
175,2.6717,,
176,2.7091,,
177,2.7446,,
178,2.7785,,
179,2.8110,,
180,2.8423,,
181,2.8725,,
182,2.9019,,
183,2.9306,,
184,2.9588,,
185,2.9866,,
186,3.0142,,
187,3.0415,,
188,3.0686,,
189,3.0955,,
190,3.1223,,
191,3.1489,,
192,3.1753,,
193,3.2014,,
194,3.2271,,
195,3.2526,,
196,3.2775,,
197,3.3020,,
198,3.3260,,
199,3.3495,,
200,3.3724,,
201,3.3948,,
202,3.4165,,
203,3.4378,,
204,3.4586,,
205,3.4789,,
206,3.4988,,
207,3.5182,,
208,3.5373,,
209,3.5562,,
210,3.5747,,
211,3.5932,,
212,3.6114,,
213,3.6295,,
214,3.6476,,
215,3.6656,,
216,3.6834,,
217,3.7014,,
218,3.7193,,
219,3.7372,,
220,3.7550,,
221,3.7728,,
222,3.7905,,
223,3.8081,,
224,3.8256,,
225,3.8429,,
226,3.8600,,
227,3.8769,,
228,3.8935,,
229,3.9097,,
230,3.9254,,
231,3.9408,,
232,3.9557,,
233,3.9700,,
234,3.9838,,
235,3.9969,,
236,4.0093,,
237,4.0210,,
238,4.0319,,
239,4.0420,,
240,4.0513,,
241,4.0596,,
242,4.0671,,
243,4.0737,,
244,4.0792,,
245,4.0839,,
246,4.0875,,
247,4.0902,,
248,4.0919,,
249,4.0926,,
250,4.0923,,
251,4.0910,,
252,4.0888,,
253,4.0857,,
254,4.0817,,
255,4.0768,,
256,4.0710,,
257,4.0644,,
258,4.0570,,
259,4.0488,,
260,4.0400,,
261,4.0304,,
262,4.0202,,
263,4.0094,,
264,3.9981,,
265,3.9861,,
266,3.9737,,
267,3.9608,,
268,3.9474,,
269,3.9336,,
270,3.9194,,
271,3.9049,,
272,3.8900,,
273,3.8747,,
274,3.8591,,
275,3.8432,,
276,3.8270,,
277,3.8105,,
278,3.7937,,
279,3.7766,,
280,3.7593,,
281,3.7417,,
282,3.7238,,
283,3.7056,,
284,3.6872,,
285,3.6686,,
286,3.6497,,
287,3.6306,,
288,3.6112,,
289,3.5917,,
290,3.5719,,
291,3.5520,,
292,3.5318,,
293,3.5115,,
294,3.4912,,
295,3.4707,,
296,3.4501,,
297,3.4296,,
298,3.4089,,
299,3.3883,,
300,3.3678,,
301,3.3473,,
302,3.3269,,
303,3.3066,,
304,3.2866,,
305,3.2667,,
306,3.2470,,
307,3.2276,,
308,3.2085,,
309,3.1897,,
310,3.1712,,
311,3.1530,,
312,3.1352,,
313,3.1179,,
314,3.1008,,
315,3.0842,,
316,3.0680,,
317,3.0522,,
318,3.0369,,
319,3.0219,,
320,3.0074,,
321,2.9932,,
322,2.9795,,
323,2.9661,,
324,2.9532,,
325,2.9405,,
326,2.9282,,
327,2.9163,,
328,2.9047,,
329,2.8934,,
330,2.8823,,
331,2.8714,,
332,2.8609,,
333,2.8505,,
334,2.8403,,
335,2.8303,,
336,2.8205,,
337,2.8108,,
338,2.8012,,
339,2.7917,,
340,2.7823,,
341,2.7729,,
342,2.7636,,
343,2.7544,,
344,2.7451,,
345,2.7359,,
346,2.7267,,
347,2.7175,,
348,2.7082,,
349,2.6990,,
350,2.6896,,
351,2.6803,,
352,2.6709,,
353,2.6615,,
354,2.6520,,
355,2.6424,,
356,2.6328,,
357,2.6231,,
358,2.6134,,
359,2.6036,,
360,2.5937,,
361,2.5837,,
362,2.5737,,
363,2.5636,,
364,2.5534,,
365,2.5431,,
366,2.5328,,
367,2.5224,,
368,2.5119,,
369,2.5013,,
370,2.4907,,
371,2.4800,,
372,2.4692,,
373,2.4583,,
374,2.4474,,
375,2.4364,,
376,2.4254,,
377,2.4142,,
378,2.4030,,
379,2.3918,,
380,2.3805,,
381,2.3691,,
382,2.3577,,
383,2.3462,,
384,2.3347,,
385,2.3232,,
386,2.3115,,
387,2.2999,,
388,2.2881,,
389,2.2764,,
390,2.2646,,
391,2.2528,,
392,2.2409,,
393,2.2291,,
394,2.2172,,
395,2.2053,,
396,2.1934,,
397,2.1814,,
398,2.1695,,
399,2.1575,,
400,2.1455,,
401,2.1336,,
402,2.1216,,
403,2.1096,,
404,2.0977,,
405,2.0857,,
406,2.0738,,
407,2.0619,,
408,2.0500,,
409,2.0381,,
410,2.0263,,
411,2.0145,,
412,2.0027,,
413,1.9910,,
414,1.9793,,
415,1.9676,,
416,1.9560,,
417,1.9444,,
418,1.9329,,
419,1.9214,,
420,1.9099,,
421,1.8985,,
422,1.8871,,
423,1.8759,,
424,1.8646,,
425,1.8534,,
426,1.8423,,
427,1.8312,,
428,1.8202,,
429,1.8092,,
430,1.7983,,
431,1.7875,,
432,1.7767,,
433,1.7660,,
434,1.7553,,
435,1.7447,,
436,1.7342,,
437,1.7238,,
438,1.7133,,
439,1.7030,,
440,1.6927,,
441,1.6825,,
442,1.6724,,
443,1.6623,,
444,1.6523,,
445,1.6423,,
446,1.6324,,
447,1.6226,,
448,1.6129,,
449,1.6032,,
450,1.5936,,
451,1.5840,,
452,1.5746,,
453,1.5652,,
454,1.5558,,
455,1.5466,,
456,1.5374,,
457,1.5283,,
458,1.5193,,
459,1.5103,,
460,1.5015,,
461,1.4927,,
462,1.4840,,
463,1.4753,,
464,1.4668,,
465,1.4583,,
466,1.4500,,
467,1.4417,,
468,1.4335,,
469,1.4253,,
470,1.4173,,
471,1.4094,,
472,1.4015,,
473,1.3938,,
474,1.3861,,
475,1.3785,,
476,1.3710,,
477,1.3636,,
478,1.3563,,
479,1.3491,,
480,1.3420,,
481,1.3349,,
482,1.3280,,
483,1.3211,,
484,1.3143,,
485,1.3076,,
486,1.3010,,
487,1.2944,,
488,1.2880,,
489,1.2816,,
490,1.2753,,
491,1.2691,,
492,1.2630,,
493,1.2569,,
494,1.2509,,
495,1.2450,,
496,1.2392,,
497,1.2334,,
498,1.2277,,
499,1.2220,,
500,1.2165,,
501,1.2109,,
502,1.2055,,
503,1.2001,,
504,1.1947,,
505,1.1894,,
506,1.1842,,
507,1.1790,,
508,1.1739,,
509,1.1688,,
510,1.1637,,
511,1.1587,,
512,1.1538,,
513,1.1489,,
514,1.1440,,
515,1.1392,,
516,1.1344,,
517,1.1296,,
518,1.1249,,
519,1.1203,,
520,1.1156,,
521,1.1110,,
522,1.1064,,
523,1.1019,,
524,1.0974,,
525,1.0929,,
526,1.0885,,
527,1.0841,,
528,1.0797,,
529,1.0753,,
530,1.0710,,
531,1.0667,,
532,1.0625,,
533,1.0582,,
534,1.0540,,
535,1.0498,,
536,1.0457,,
537,1.0415,,
538,1.0374,,
539,1.0333,,
540,1.0293,,
541,1.0252,,
542,1.0212,,
543,1.0172,,
544,1.0133,,
545,1.0093,,
546,1.0054,,
547,1.0015,,
548,0.9976,,
549,0.9938,,
550,0.9899,,
551,0.9861,,
552,0.9823,,
553,0.9786,,
554,0.9748,,
555,0.9711,,
556,0.9674,,
557,0.9637,,
558,0.9600,,
559,0.9563,,
560,0.9527,,
561,0.9491,,
562,0.9454,,
563,0.9418,,
564,0.9383,,
565,0.9347,,
566,0.9311,,
567,0.9276,,
568,0.9241,,
569,0.9206,,
570,0.9171,,
571,0.9136,,
572,0.9101,,
573,0.9066,,
574,0.9031,,
575,0.8997,,
576,0.8962,,
577,0.8928,,
578,0.8894,,
579,0.8859,,
580,0.8825,,
581,0.8791,,
582,0.8757,,
583,0.8722,,
584,0.8688,,
585,0.8654,,
586,0.8620,,
587,0.8586,,
588,0.8552,,
589,0.8518,,
590,0.8483,,
591,0.8449,,
592,0.8415,,
593,0.8381,,
594,0.8346,,
595,0.8312,,
596,0.8278,,
597,0.8243,,
598,0.8209,,
599,0.8174,,
600,0.8139,,
601,0.8104,,
602,0.8070,,
603,0.8035,,
604,0.7999,,
605,0.7964,,
606,0.7929,,
607,0.7894,,
608,0.7858,,
609,0.7822,,
610,0.7787,,
611,0.7751,,
612,0.7715,,
613,0.7679,,
614,0.7642,,
615,0.7606,,
616,0.7570,,
617,0.7533,,
618,0.7496,,
619,0.7459,,
620,0.7422,,
621,0.7385,,
622,0.7348,,
623,0.7310,,
624,0.7273,,
625,0.7235,,
626,0.7198,,
627,0.7160,,
628,0.7122,,
629,0.7084,,
630,0.7046,,
631,0.7007,,
632,0.6969,,
633,0.6930,,
634,0.6892,,
635,0.6853,,
636,0.6814,,
637,0.6776,,
638,0.6737,,
639,0.6698,,
640,0.6659,,
641,0.6620,,
642,0.6581,,
643,0.6542,,
644,0.6503,,
645,0.6464,,
646,0.6425,,
647,0.6386,,
648,0.6347,,
649,0.6308,,
650,0.6269,,
651,0.6230,,
652,0.6191,,
653,0.6152,,
654,0.6113,,
655,0.6074,,
656,0.6036,,
657,0.5997,,
658,0.5959,,
659,0.5921,,
660,0.5882,,
661,0.5844,,
662,0.5806,,
663,0.5768,,
664,0.5731,,
665,0.5693,,
666,0.5656,,
667,0.5619,,
668,0.5582,,
669,0.5545,,
670,0.5508,,
671,0.5472,,
672,0.5435,,
673,0.5399,,
674,0.5364,,
675,0.5328,,
676,0.5293,,
677,0.5257,,
678,0.5223,,
679,0.5188,,
680,0.5153,,
681,0.5119,,
682,0.5085,,
683,0.5051,,
684,0.5018,,
685,0.4985,,
686,0.4952,,
687,0.4919,,
688,0.4887,,
689,0.4855,,
690,0.4823,,
691,0.4792,,
692,0.4760,,
693,0.4729,,
694,0.4698,,
695,0.4668,,
696,0.4638,,
697,0.4608,,
698,0.4578,,
699,0.4549,,
700,0.4520,,
701,0.4491,,
702,0.4463,,
703,0.4434,,
704,0.4406,,
705,0.4379,,
706,0.4351,,
707,0.4324,,
708,0.4297,,
709,0.4271,,
710,0.4244,,
711,0.4218,,
712,0.4192,,
713,0.4167,,
714,0.4141,,
715,0.4116,,
716,0.4092,,
717,0.4067,,
718,0.4043,,
719,0.4019,,
720,0.3995,,
721,0.3972,,
722,0.3948,,
723,0.3925,,
724,0.3903,,
725,0.3880,,
726,0.3858,,
727,0.3836,,
728,0.3814,,
729,0.3792,,
730,0.3771,,
731,0.3750,,
732,0.3729,,
733,0.3708,,
734,0.3687,,
735,0.3667,,
736,0.3647,,
737,0.3627,,
738,0.3608,,
739,0.3588,,
740,0.3569,,
741,0.3550,,
742,0.3531,,
743,0.3512,,
744,0.3494,,
745,0.3476,,
746,0.3458,,
747,0.3440,,
748,0.3422,,
749,0.3405,,
750,0.3387,,
751,0.3370,,
752,0.3353,,
753,0.3337,,
754,0.3320,,
755,0.3304,,
756,0.3287,,
757,0.3271,,
758,0.3255,,
759,0.3240,,
760,0.3224,,
761,0.3209,,
762,0.3194,,
763,0.3179,,
764,0.3164,,
765,0.3149,,
766,0.3134,,
767,0.3120,,
768,0.3106,,
769,0.3092,,
770,0.3078,,
771,0.3064,,
772,0.3050,,
773,0.3036,,
774,0.3023,,
775,0.3010,,
776,0.2997,,
777,0.2983,,
778,0.2971,,
779,0.2958,,
780,0.2945,,
781,0.2933,,
782,0.2920,,
783,0.2908,,
784,0.2896,,
785,0.2883,,
786,0.2871,,
787,0.2859,,
788,0.2848,,
789,0.2836,,
790,0.2824,,
791,0.2813,,
792,0.2801,,
793,0.2790,,
794,0.2779,,
795,0.2768,,
796,0.2756,,
797,0.2745,,
798,0.2734,,
799,0.2724,,
800,0.2713,,
801,0.2702,,
802,0.2691,,
803,0.2681,,
804,0.2670,,
805,0.2660,,
806,0.2649,,
807,0.2639,,
808,0.2628,,
809,0.2618,,
810,0.2608,,
811,0.2597,,
812,0.2587,,
813,0.2577,,
814,0.2567,,
815,0.2557,,
816,0.2547,,
817,0.2537,,
818,0.2527,,
819,0.2517,,
820,0.2507,,
821,0.2497,,
822,0.2487,,
823,0.2477,,
824,0.2467,,
825,0.2458,,
826,0.2448,,
827,0.2438,,
828,0.2428,,
829,0.2418,,
830,0.2408,,
831,0.2399,,
832,0.2389,,
833,0.2379,,
834,0.2369,,
835,0.2360,,
836,0.2350,,
837,0.2340,,
838,0.2330,,
839,0.2320,,
840,0.2311,,
841,0.2301,,
842,0.2291,,
843,0.2281,,
844,0.2271,,
845,0.2262,,
846,0.2252,,
847,0.2242,,
848,0.2232,,
849,0.2222,,
850,0.2212,,
851,0.2202,,
852,0.2193,,
853,0.2183,,
854,0.2173,,
855,0.2163,,
856,0.2153,,
857,0.2143,,
858,0.2133,,
859,0.2123,,
860,0.2113,,
861,0.2103,,
862,0.2093,,
863,0.2083,,
864,0.2073,,
865,0.2063,,
866,0.2053,,
867,0.2043,,
868,0.2033,,
869,0.2022,,
870,0.2012,,
871,0.2002,,
872,0.1992,,
873,0.1982,,
874,0.1972,,
875,0.1962,,
876,0.1952,,
877,0.1941,,
878,0.1931,,
879,0.1921,,
880,0.1911,,
881,0.1901,,
882,0.1890,,
883,0.1880,,
884,0.1870,,
885,0.1860,,
886,0.1849,,
887,0.1839,,
888,0.1829,,
889,0.1819,,
890,0.1809,,
891,0.1798,,
892,0.1788,,
893,0.1778,,
894,0.1768,,
895,0.1757,,
896,0.1747,,
897,0.1737,,
898,0.1727,,
899,0.1717,,
900,0.1706,,
901,0.1696,,
902,0.1686,,
903,0.1676,,
904,0.1666,,
905,0.1656,,
906,0.1645,,
907,0.1635,,
908,0.1625,,
909,0.1615,,
910,0.1605,,
911,0.1595,,
912,0.1585,,
913,0.1575,,
914,0.1565,,
915,0.1555,,
916,0.1545,,
917,0.1535,,
918,0.1525,,
919,0.1516,,
920,0.1506,,
921,0.1496,,
922,0.1486,,
923,0.1477,,
924,0.1467,,
925,0.1457,,
926,0.1448,,
927,0.1438,,
928,0.1429,,
929,0.1419,,
930,0.1410,,
931,0.1400,,
932,0.1391,,
933,0.1381,,
934,0.1372,,
935,0.1363,,
936,0.1354,,
937,0.1345,,
938,0.1335,,
939,0.1326,,
940,0.1317,,
941,0.1308,,
942,0.1300,,
943,0.1291,,
944,0.1282,,
945,0.1273,,
946,0.1264,,
947,0.1256,,
948,0.1247,,
949,0.1239,,
950,0.1230,,
951,0.1222,,
952,0.1213,,
953,0.1205,,
954,0.1197,,
955,0.1189,,
956,0.1180,,
957,0.1172,,
958,0.1164,,
959,0.1156,,
960,0.1148,,
961,0.1141,,
962,0.1133,,
963,0.1125,,
964,0.1118,,
965,0.1110,,
966,0.1102,,
967,0.1095,,
968,0.1088,,
969,0.1080,,
970,0.1073,,
971,0.1066,,
972,0.1059,,
973,0.1051,,
974,0.1044,,
975,0.1038,,
976,0.1031,,
977,0.1024,,
978,0.1017,,
979,0.1010,,
980,0.1004,,
981,0.0997,,
982,0.0991,,
983,0.0984,,
984,0.0978,,
985,0.0971,,
986,0.0965,,
987,0.0959,,
988,0.0953,,
989,0.0947,,
990,0.0941,,
991,0.0935,,
992,0.0929,,
993,0.0923,,
994,0.0917,,
995,0.0911,,
996,0.0906,,
997,0.0900,,
998,0.0895,,
999,0.0889,,
1000,0.0884,,
1001,0.0878,,
1002,0.0873,,
1003,0.0868,,
1004,0.0863,,
1005,0.0857,,
1006,0.0852,,
1007,0.0847,,
1008,0.0842,,
1009,0.0837,,
1010,0.0833,,
1011,0.0828,,
1012,0.0823,,
1013,0.0818,,
1014,0.0814,,
1015,0.0809,,
1016,0.0804,,
1017,0.0800,,
1018,0.0795,,
1019,0.0791,,
1020,0.0787,,
1021,0.0782,,
1022,0.0778,,
1023,0.0774,,
1024,0.0770,,
1025,0.0765,,
1026,0.0761,,
1027,0.0757,,
1028,0.0753,,
1029,0.0749,,
1030,0.0745,,
1031,0.0741,,
1032,0.0738,,
1033,0.0734,,
1034,0.0730,,
1035,0.0726,,
1036,0.0723,,
1037,0.0719,,
1038,0.0715,,
1039,0.0712,,
1040,0.0708,,
1041,0.0705,,
1042,0.0701,,
1043,0.0698,,
1044,0.0694,,
1045,0.0691,,
1046,0.0688,,
1047,0.0685,,
1048,0.0681,,
1049,0.0678,,
1050,0.0675,,
1051,0.0672,,
1052,0.0669,,
1053,0.0665,,
1054,0.0662,,
1055,0.0659,,
1056,0.0656,,
1057,0.0653,,
1058,0.0650,,
1059,0.0647,,
1060,0.0645,,
1061,0.0642,,
1062,0.0639,,
1063,0.0636,,
1064,0.0633,,
1065,0.0630,,
1066,0.0628,,
1067,0.0625,,
1068,0.0622,,
1069,0.0620,,
1070,0.0617,,
1071,0.0614,,
1072,0.0612,,
1073,0.0609,,
1074,0.0606,,
1075,0.0604,,
1076,0.0601,,
1077,0.0599,,
1078,0.0596,,
1079,0.0594,,
1080,0.0592,,
1081,0.0589,,
1082,0.0587,,
1083,0.0584,,
1084,0.0582,,
1085,0.0580,,
1086,0.0577,,
1087,0.0575,,
1088,0.0573,,
1089,0.0570,,
1090,0.0568,,
1091,0.0566,,
1092,0.0564,,
1093,0.0561,,
1094,0.0559,,
1095,0.0557,,
1096,0.0555,,
1097,0.0553,,
1098,0.0551,,
1099,0.0548,,
1100,0.0546,,
1101,0.0544,,
1102,0.0542,,
1103,0.0540,,
1104,0.0538,,
1105,0.0536,,
1106,0.0534,,
1107,0.0532,,
1108,0.0530,,
1109,0.0528,,
1110,0.0526,,
1111,0.0524,,
1112,0.0522,,
1113,0.0520,,
1114,0.0518,,
1115,0.0516,,
1116,0.0514,,
1117,0.0512,,
1118,0.0510,,
1119,0.0508,,
1120,0.0507,,
1121,0.0505,,
1122,0.0503,,
1123,0.0501,,
1124,0.0499,,
1125,0.0497,,
1126,0.0495,,
1127,0.0494,,
1128,0.0492,,
1129,0.0490,,
1130,0.0488,,
1131,0.0486,,
1132,0.0484,,
1133,0.0483,,
1134,0.0481,,
1135,0.0479,,
1136,0.0477,,
1137,0.0475,,
1138,0.0474,,
1139,0.0472,,
1140,0.0470,,
1141,0.0468,,
1142,0.0467,,
1143,0.0465,,
1144,0.0463,,
1145,0.0461,,
1146,0.0460,,
1147,0.0458,,
1148,0.0456,,
1149,0.0454,,
1150,0.0453,,
1151,0.0451,,
1152,0.0449,,
1153,0.0447,,
1154,0.0446,,
1155,0.0444,,
1156,0.0442,,
1157,0.0440,,
1158,0.0439,,
1159,0.0437,,
1160,0.0435,,
1161,0.0433,,
1162,0.0432,,
1163,0.0430,,
1164,0.0428,,
1165,0.0427,,
1166,0.0425,,
1167,0.0423,,
1168,0.0421,,
1169,0.0420,,
1170,0.0418,,
1171,0.0416,,
1172,0.0414,,
1173,0.0413,,
1174,0.0411,,
1175,0.0409,,
1176,0.0407,,
1177,0.0406,,
1178,0.0404,,
1179,0.0402,,
1180,0.0400,,
1181,0.0399,,
1182,0.0397,,
1183,0.0395,,
1184,0.0393,,
1185,0.0392,,
1186,0.0390,,
1187,0.0388,,
1188,0.0386,,
1189,0.0385,,
1190,0.0383,,
1191,0.0381,,
1192,0.0379,,
1193,0.0377,,
1194,0.0376,,
1195,0.0374,,
1196,0.0372,,
1197,0.0370,,
1198,0.0369,,
1199,0.0367,,
1200,0.0365,,
1201,0.0363,,
1202,0.0361,,
1203,0.0360,,
1204,0.0358,,
1205,0.0356,,
1206,0.0354,,
1207,0.0352,,
1208,0.0351,,
1209,0.0349,,
1210,0.0347,,
1211,0.0345,,
1212,0.0343,,
1213,0.0341,,
1214,0.0340,,
1215,0.0338,,
1216,0.0336,,
1217,0.0334,,
1218,0.0332,,
1219,0.0331,,
1220,0.0329,,
1221,0.0327,,
1222,0.0325,,
1223,0.0323,,
1224,0.0321,,
1225,0.0320,,
1226,0.0318,,
1227,0.0316,,
1228,0.0314,,
1229,0.0312,,
1230,0.0311,,
1231,0.0309,,
1232,0.0307,,
1233,0.0305,,
1234,0.0303,,
1235,0.0301,,
1236,0.0300,,
1237,0.0298,,
1238,0.0296,,
1239,0.0294,,
1240,0.0292,,
1241,0.0291,,
1242,0.0289,,
1243,0.0287,,
1244,0.0285,,
1245,0.0283,,
1246,0.0281,,
1247,0.0280,,
1248,0.0278,,
1249,0.0276,,
1250,0.0274,,
1251,0.0273,,
1252,0.0271,,
1253,0.0269,,
1254,0.0267,,
1255,0.0265,,
1256,0.0264,,
1257,0.0262,,
1258,0.0260,,
1259,0.0258,,
1260,0.0257,,
1261,0.0255,,
1262,0.0253,,
1263,0.0251,,
1264,0.0250,,
1265,0.0248,,
1266,0.0246,,
1267,0.0245,,
1268,0.0243,,
1269,0.0241,,
1270,0.0239,,
1271,0.0238,,
1272,0.0236,,
1273,0.0234,,
1274,0.0233,,
1275,0.0231,,
1276,0.0229,,
1277,0.0228,,
1278,0.0226,,
1279,0.0224,,
1280,0.0223,,
1281,0.0221,,
1282,0.0220,,
1283,0.0218,,
1284,0.0216,,
1285,0.0215,,
1286,0.0213,,
1287,0.0212,,
1288,0.0210,,
1289,0.0209,,
1290,0.0207,,
1291,0.0205,,
1292,0.0204,,
1293,0.0202,,
1294,0.0201,,
1295,0.0199,,
1296,0.0198,,
1297,0.0196,,
1298,0.0195,,
1299,0.0193,,
1300,0.0192,,
1301,0.0190,,
1302,0.0189,,
1303,0.0188,,
1304,0.0186,,
1305,0.0185,,
1306,0.0183,,
1307,0.0182,,
1308,0.0181,,
1309,0.0179,,
1310,0.0178,,
1311,0.0176,,
1312,0.0175,,
1313,0.0174,,
1314,0.0172,,
1315,0.0171,,
1316,0.0170,,
1317,0.0168,,
1318,0.0167,,
1319,0.0166,,
1320,0.0165,,
1321,0.0163,,
1322,0.0162,,
1323,0.0161,,
1324,0.0160,,
1325,0.0158,,
1326,0.0157,,
1327,0.0156,,
1328,0.0155,,
1329,0.0154,,
1330,0.0153,,
1331,0.0151,,
1332,0.0150,,
1333,0.0149,,
1334,0.0148,,
1335,0.0147,,
1336,0.0146,,
1337,0.0145,,
1338,0.0144,,
1339,0.0142,,
1340,0.0141,,
1341,0.0140,,
1342,0.0139,,
1343,0.0138,,
1344,0.0137,,
1345,0.0136,,
1346,0.0135,,
1347,0.0134,,
1348,0.0133,,
1349,0.0132,,
1350,0.0131,,
1351,0.0130,,
1352,0.0129,,
1353,0.0129,,
1354,0.0128,,
1355,0.0127,,
1356,0.0126,,
1357,0.0125,,
1358,0.0124,,
1359,0.0123,,
1360,0.0122,,
1361,0.0121,,
1362,0.0121,,
1363,0.0120,,
1364,0.0119,,
1365,0.0118,,
1366,0.0117,,
1367,0.0116,,
1368,0.0116,,
1369,0.0115,,
1370,0.0114,,
1371,0.0113,,
1372,0.0113,,
1373,0.0112,,
1374,0.0111,,
1375,0.0110,,
1376,0.0110,,
1377,0.0109,,
1378,0.0108,,
1379,0.0107,,
1380,0.0107,,
1381,0.0106,,
1382,0.0105,,
1383,0.0105,,
1384,0.0104,,
1385,0.0103,,
1386,0.0103,,
1387,0.0102,,
1388,0.0101,,
1389,0.0101,,
1390,0.0100,,
1391,0.0100,,
1392,0.0099,,
1393,0.0098,,
1394,0.0098,,
1395,0.0097,,
1396,0.0097,,
1397,0.0096,,
1398,0.0095,,
1399,0.0095,,
1400,0.0094,,
1401,0.0094,,
1402,0.0093,,
1403,0.0093,,
1404,0.0092,,
1405,0.0092,,
1406,0.0091,,
1407,0.0091,,
1408,0.0090,,
1409,0.0090,,
1410,0.0089,,
1411,0.0089,,
1412,0.0088,,
1413,0.0088,,
1414,0.0087,,
1415,0.0087,,
1416,0.0086,,
1417,0.0086,,
1418,0.0085,,
1419,0.0085,,
1420,0.0084,,
1421,0.0084,,
1422,0.0083,,
1423,0.0083,,
1424,0.0082,,
1425,0.0082,,
1426,0.0082,,
1427,0.0081,,
1428,0.0081,,
1429,0.0080,,
1430,0.0080,,
1431,0.0080,,
1432,0.0079,,
1433,0.0079,,
1434,0.0078,,
1435,0.0078,,
1436,0.0077,,
1437,0.0077,,
1438,0.0077,,
1439,0.0076,,
1440,0.0076,,
1441,0.0076,,
1442,0.0075,,
1443,0.0075,,
1444,0.0074,,
1445,0.0074,,
1446,0.0074,,
1447,0.0073,,
1448,0.0073,,
1449,0.0073,,
1450,0.0072,,
1451,0.0072,,
1452,0.0072,,
1453,0.0071,,
1454,0.0071,,
1455,0.0070,,
1456,0.0070,,
1457,0.0070,,
1458,0.0069,,
1459,0.0069,,
1460,0.0069,,
1461,0.0068,,
1462,0.0068,,
1463,0.0068,,
1464,0.0067,,
1465,0.0067,,
1466,0.0067,,
1467,0.0066,,
1468,0.0066,,
1469,0.0066,,
1470,0.0065,,
1471,0.0065,,
1472,0.0065,,
1473,0.0064,,
1474,0.0064,,
1475,0.0064,,
1476,0.0064,,
1477,0.0063,,
1478,0.0063,,
1479,0.0063,,
1480,0.0062,,
1481,0.0062,,
1482,0.0062,,
1483,0.0061,,
1484,0.0061,,
1485,0.0061,,
1486,0.0060,,
1487,0.0060,,
1488,0.0060,,
1489,0.0059,,
1490,0.0059,,
1491,0.0059,,
1492,0.0059,,
1493,0.0058,,
1494,0.0058,,
1495,0.0058,,
1496,0.0057,,
1497,0.0057,,
1498,0.0057,,
1499,0.0056,,
1500,0.0056,,
1501,0.0056,,
1502,0.0056,,
1503,0.0055,,
1504,0.0055,,
1505,0.0055,,
1506,0.0054,,
1507,0.0054,,
1508,0.0054,,
1509,0.0054,,
1510,0.0053,,
1511,0.0053,,
1512,0.0053,,
1513,0.0052,,
1514,0.0052,,
1515,0.0052,,
1516,0.0051,,
1517,0.0051,,
1518,0.0051,,
1519,0.0051,,
1520,0.0050,,
1521,0.0050,,
1522,0.0050,,
1523,0.0049,,
1524,0.0049,,
1525,0.0049,,
1526,0.0049,,
1527,0.0048,,
1528,0.0048,,
1529,0.0048,,
1530,0.0048,,
1531,0.0047,,
1532,0.0047,,
1533,0.0047,,
1534,0.0046,,
1535,0.0046,,
1536,0.0046,,
1537,0.0046,,
1538,0.0045,,
1539,0.0045,,
1540,0.0045,,
1541,0.0044,,
1542,0.0044,,
1543,0.0044,,
1544,0.0044,,
1545,0.0043,,
1546,0.0043,,
1547,0.0043,,
1548,0.0043,,
1549,0.0042,,
1550,0.0042,,
1551,0.0042,,
1552,0.0042,,
1553,0.0041,,
1554,0.0041,,
1555,0.0041,,
1556,0.0040,,
1557,0.0040,,
1558,0.0040,,
1559,0.0040,,
1560,0.0039,,
1561,0.0039,,
1562,0.0039,,
1563,0.0039,,
1564,0.0038,,
1565,0.0038,,
1566,0.0038,,
1567,0.0038,,
1568,0.0037,,
1569,0.0037,,
1570,0.0037,,
1571,0.0037,,
1572,0.0036,,
1573,0.0036,,
1574,0.0036,,
1575,0.0036,,
1576,0.0035,,
1577,0.0035,,
1578,0.0035,,
1579,0.0035,,
1580,0.0034,,
1581,0.0034,,
1582,0.0034,,
1583,0.0034,,
1584,0.0034,,
1585,0.0033,,
1586,0.0033,,
1587,0.0033,,
1588,0.0033,,
1589,0.0032,,
1590,0.0032,,
1591,0.0032,,
1592,0.0032,,
1593,0.0031,,
1594,0.0031,,
1595,0.0031,,
1596,0.0031,,
1597,0.0030,,
1598,0.0030,,
1599,0.0030,,
1600,0.0030,,
1601,0.0030,,
1602,0.0029,,
1603,0.0029,,
1604,0.0029,,
1605,0.0029,,
1606,0.0028,,
1607,0.0028,,
1608,0.0028,,
1609,0.0028,,
1610,0.0028,,
1611,0.0027,,
1612,0.0027,,
1613,0.0027,,
1614,0.0027,,
1615,0.0027,,
1616,0.0026,,
1617,0.0026,,
1618,0.0026,,
1619,0.0026,,
1620,0.0026,,
1621,0.0025,,
1622,0.0025,,
1623,0.0025,,
1624,0.0025,,
1625,0.0025,,
1626,0.0024,,
1627,0.0024,,
1628,0.0024,,
1629,0.0024,,
1630,0.0024,,
1631,0.0023,,
1632,0.0023,,
1633,0.0023,,
1634,0.0023,,
1635,0.0023,,
1636,0.0022,,
1637,0.0022,,
1638,0.0022,,
1639,0.0022,,
1640,0.0022,,
1641,0.0021,,
1642,0.0021,,
1643,0.0021,,
1644,0.0021,,
1645,0.0021,,
1646,0.0020,,
1647,0.0020,,
1648,0.0020,,
1649,0.0020,,
1650,0.0020,,
1651,0.0020,,
1652,0.0019,,
1653,0.0019,,
1654,0.0019,,
1655,0.0019,,
1656,0.0019,,
1657,0.0019,,
1658,0.0018,,
1659,0.0018,,
1660,0.0018,,
1661,0.0018,,
1662,0.0018,,
1663,0.0018,,
1664,0.0017,,
1665,0.0017,,
1666,0.0017,,
1667,0.0017,,
1668,0.0017,,
1669,0.0017,,
1670,0.0016,,
1671,0.0016,,
1672,0.0016,,
1673,0.0016,,
1674,0.0016,,
1675,0.0016,,
1676,0.0015,,
1677,0.0015,,
1678,0.0015,,
1679,0.0015,,
1680,0.0015,,
1681,0.0015,,
1682,0.0015,,
1683,0.0014,,
1684,0.0014,,
1685,0.0014,,
1686,0.0014,,
1687,0.0014,,
1688,0.0014,,
1689,0.0014,,
1690,0.0013,,
1691,0.0013,,
1692,0.0013,,
1693,0.0013,,
1694,0.0013,,
1695,0.0013,,
1696,0.0013,,
1697,0.0012,,
1698,0.0012,,
1699,0.0012,,
1700,0.0012,,
1701,0.0012,,
1702,0.0012,,
1703,0.0012,,
1704,0.0011,,
1705,0.0011,,
1706,0.0011,,
1707,0.0011,,
1708,0.0011,,
1709,0.0011,,
1710,0.0011,,
1711,0.0011,,
1712,0.0010,,
1713,0.0010,,
1714,0.0010,,
1715,0.0010,,
1716,0.0010,,
1717,0.0010,,
1718,0.0010,,
1719,0.0010,,
1720,0.0009,,
1721,0.0009,,
1722,0.0009,,
1723,0.0009,,
1724,0.0009,,
1725,0.0009,,
1726,0.0009,,
1727,0.0009,,
1728,0.0009,,
1729,0.0008,,
1730,0.0008,,
1731,0.0008,,
1732,0.0008,,
1733,0.0008,,
1734,0.0008,,
1735,0.0008,,
1736,0.0008,,
1737,0.0008,,
1738,0.0008,,
1739,0.0007,,
1740,0.0007,,
1741,0.0007,,
1742,0.0007,,
1743,0.0007,,
1744,0.0007,,
1745,0.0007,,
1746,0.0007,,
1747,0.0007,,
1748,0.0007,,
1749,0.0006,,
1750,0.0006,,
1751,0.0006,,
1752,0.0006,,
1753,0.0006,,
1754,0.0006,,
1755,0.0006,,
1756,0.0006,,
1757,0.0006,,
1758,0.0006,,
1759,0.0006,,
1760,0.0006,,
1761,0.0005,,
1762,0.0005,,
1763,0.0005,,
1764,0.0005,,
1765,0.0005,,
1766,0.0005,,
1767,0.0005,,
1768,0.0005,,
1769,0.0005,,
1770,0.0005,,
1771,0.0005,,
1772,0.0005,,
1773,0.0005,,
1774,0.0004,,
1775,0.0004,,
1776,0.0004,,
1777,0.0004,,
1778,0.0004,,
1779,0.0004,,
1780,0.0004,,
1781,0.0004,,
1782,0.0004,,
1783,0.0004,,
1784,0.0004,,
1785,0.0004,,
1786,0.0004,,
1787,0.0004,,
1788,0.0004,,
1789,0.0004,,
1790,0.0003,,
1791,0.0003,,
1792,0.0003,,
1793,0.0003,,
1794,0.0003,,
1795,0.0003,,
1796,0.0003,,
1797,0.0003,,
1798,0.0003,,
1799,0.0003,,
1800,0.0003,,
1801,0.0003,,
1802,0.0003,,
1803,0.0003,,
1804,0.0003,,
1805,0.0003,,
1806,0.0003,,
1807,0.0003,,
1808,0.0003,,
1809,0.0002,,
1810,0.0002,,
1811,0.0002,,
1812,0.0002,,
1813,0.0002,,
1814,0.0002,,
1815,0.0002,,
1816,0.0002,,
1817,0.0002,,
1818,0.0002,,
1819,0.0002,,
1820,0.0002,,
1821,0.0002,,
1822,0.0002,,
1823,0.0002,,
1824,0.0002,,
1825,0.0002,,
1826,0.0002,,
1827,0.0002,,
1828,0.0002,,
1829,0.0002,,
1830,0.0002,,
1831,0.0002,,
1832,0.0002,,
1833,0.0002,,
1834,0.0002,,
1835,0.0002,,
1836,0.0001,,
1837,0.0001,,
1838,0.0001,,
1839,0.0001,,
1840,0.0001,,
1841,0.0001,,
1842,0.0001,,
1843,0.0001,,
1844,0.0001,,
1845,0.0001,,
1846,0.0001,,
1847,0.0001,,
1848,0.0001,,
1849,0.0001,,
1850,0.0001,,
1851,0.0001,,
1852,0.0001,,
1853,0.0001,,
1854,0.0001,,
1855,0.0001,,
1856,0.0001,,
1857,0.0001,,
1858,0.0001,,
1859,0.0001,,
1860,0.0001,,
1861,0.0001,,
1862,0.0001,,
1863,0.0001,,
1864,0.0001,,
1865,0.0001,,
1866,0.0001,,
1867,0.0001,,
1868,0.0001,,
1869,0.0001,,
1870,0.0001,,
1871,0.0001,,
1872,0.0001,,
1873,0.0001,,
1874,0.0001,,
1875,0.0001,,
1876,0.0001,,
1877,0.0001,,
1878,0.0001,,
1879,0.0001,,
1880,0.0001,,
1881,0.0001,,
1882,0.0001,,
1883,0.0001,,
1884,0.0001,,
1885,0.0001,,
1886,0.0000,,
1887,0.0000,,
1888,0.0000,,
1889,0.0000,,
1890,0.0000,,
1891,0.0000,,
1892,0.0000,,
1893,0.0000,,
1894,0.0000,,
1895,0.0000,,
1896,0.0000,,
1897,0.0000,,
1898,0.0000,,
1899,0.0000,,
1900,0.0000,,
1901,0.0000,,
1902,0.0000,,
1903,0.0000,,
1904,0.0000,,
1905,0.0000,,
1906,0.0000,,
1907,0.0000,,
1908,0.0000,,
1909,0.0000,,
1910,0.0000,,
1911,0.0000,,
1912,0.0000,,
1913,0.0000,,
1914,0.0000,,
1915,0.0000,,
1916,0.0000,,
1917,0.0000,,
1918,0.0000,,
1919,0.0000,,
1920,0.0000,,
1921,0.0000,,
1922,0.0000,,
1923,0.0000,,
1924,0.0000,,
1925,0.0000,,
1926,0.0000,,
1927,0.0000,,
1928,0.0000,,
1929,0.0000,,
1930,0.0000,,
1931,0.0000,,
1932,0.0000,,
1933,0.0000,,
1934,0.0000,,
1935,0.0000,,
1936,0.0000,,
1937,0.0000,,
1938,0.0000,,
1939,0.0000,,
1940,0.0000,,
1941,0.0000,,
1942,0.0000,,
1943,0.0000,,
1944,0.0000,,
1945,0.0000,,
1946,0.0000,,
1947,0.0000,,
1948,0.0000,,
1949,0.0000,,
1950,0.0000,,
1951,0.0000,,
1952,0.0000,,
1953,0.0000,,
1954,0.0000,,
1955,0.0000,,
1956,0.0000,,
1957,0.0000,,
1958,0.0000,,
1959,0.0000,,
1960,0.0000,,
1961,0.0000,,
1962,0.0000,,
1963,0.0000,,
1964,0.0000,,
1965,0.0000,,
1966,0.0000,,
1967,0.0000,,
1968,0.0000,,
1969,0.0000,,
1970,0.0000,,
1971,0.0000,,
1972,0.0000,,
1973,0.0000,,
1974,0.0000,,
1975,0.0000,,
1976,0.0000,,
1977,0.0000,,
1978,0.0000,,
1979,0.0000,,
1980,0.0000,,
1981,0.0000,,
1982,0.0000,,
1983,0.0000,,
1984,0.0000,,
1985,0.0000,,
1986,0.0000,,
1987,0.0000,,
1988,0.0000,,
1989,0.0000,,
1990,0.0000,,
1991,0.0000,,
1992,0.0000,,
1993,0.0000,,
1994,0.0000,,
1995,0.0000,,
1996,0.0000,,
1997,0.0000,,
1998,0.0000,,
1999,0.0000,,

[Histogram Data]
Binwidth,4
Diffusion Coefficient (E4 nm²/s), Concentration (E6 particles / ml),,
2.0,0.0000,,
6.0,0.0000,,
10.0,0.0000,,
14.0,0.0000,,
18.0,0.0000,,
22.0,0.0000,,
26.0,0.0000,,
30.0,0.0000,,
34.0,0.0000,,
38.0,0.0000,,
42.0,0.0000,,
46.0,0.0000,,
50.0,0.0000,,
54.0,0.0000,,
58.0,0.0000,,
62.0,0.0000,,
66.0,0.0000,,
70.0,0.0000,,
74.0,0.0000,,
78.0,0.0000,,
82.0,0.0000,,
86.0,0.0000,,
90.0,0.0000,,
94.0,0.5203,,
98.0,0.0000,,
102.0,0.2602,,
106.0,0.2428,,
110.0,0.5550,,
114.0,0.9366,,
118.0,0.7285,,
122.0,0.4163,,
126.0,1.0753,,
130.0,1.6304,,
134.0,3.0526,,
138.0,3.0526,,
142.0,5.1166,,
146.0,3.3995,,
150.0,4.8044,,
154.0,6.9030,,
158.0,5.3247,,
162.0,4.5095,,
166.0,9.1231,,
170.0,13.9969,,
174.0,12.9042,,
178.0,6.7469,,
182.0,12.1931,,
186.0,11.6033,,
190.0,11.6380,,
194.0,13.9101,,
198.0,12.3838,,
202.0,16.7546,,
206.0,11.4472,,
210.0,14.3264,,
214.0,13.9448,,
218.0,14.7600,,
222.0,14.9508,,
226.0,15.1589,,
230.0,15.8007,,
234.0,16.0435,,
238.0,15.9047,,
242.0,15.9741,,
246.0,15.6966,,
250.0,18.2115,,
254.0,17.9167,,
258.0,16.0955,,
262.0,16.9974,,
266.0,15.9568,,
270.0,15.7313,,
274.0,12.4706,,
278.0,19.1308,,
282.0,16.7026,,
286.0,13.9101,,
290.0,13.4245,,
294.0,18.6278,,
298.0,12.7828,,
302.0,12.5226,,
306.0,13.9969,,
310.0,9.7822,,
314.0,9.4180,,
318.0,11.4819,,
322.0,15.7660,,
326.0,10.9616,,
330.0,10.3025,,
334.0,11.3432,,
338.0,11.4819,,
342.0,10.8055,,
346.0,14.3091,,
350.0,8.4467,,
354.0,9.3139,,
358.0,9.8863,,
362.0,12.0023,,
366.0,12.3318,,
370.0,11.4819,,
374.0,7.8743,,
378.0,9.3312,,
382.0,8.7415,,
386.0,9.7649,,
390.0,9.4873,,
394.0,7.9437,,
398.0,9.8342,,
402.0,9.2445,,
406.0,7.9090,,
410.0,10.4066,,
414.0,8.4467,,
418.0,6.3480,,
422.0,5.7757,,
426.0,5.0299,,
430.0,9.1231,,
434.0,6.6949,,
438.0,7.4060,,
442.0,8.5854,,
446.0,9.6088,,
450.0,5.9491,,
454.0,4.7870,,
458.0,6.0532,,
462.0,4.3361,,
466.0,4.4228,,
470.0,5.8103,,
474.0,6.0185,,
478.0,5.8971,,
482.0,4.2320,,
486.0,5.9491,,
490.0,6.0532,,
494.0,4.5962,,
498.0,3.7290,,
502.0,4.9952,,
506.0,4.7870,,
510.0,4.7870,,
514.0,4.6136,,
518.0,5.0992,,
522.0,4.2147,,
526.0,5.2553,,
530.0,2.6710,,
534.0,3.6076,,
538.0,5.8277,,
542.0,2.9138,,
546.0,3.7637,,
550.0,4.8564,,
554.0,3.5903,,
558.0,4.2494,,
562.0,4.1800,,
566.0,3.7811,,
570.0,3.7811,,
574.0,3.3995,,
578.0,3.5556,,
582.0,1.7518,,
586.0,3.8331,,
590.0,3.9372,,
594.0,4.2667,,
598.0,3.0353,,
602.0,3.5729,,
606.0,1.9599,,
610.0,4.0065,,
614.0,2.3588,,
618.0,4.6656,,
622.0,3.6597,,
626.0,2.5670,,
630.0,2.6190,,
634.0,3.7637,,
638.0,2.2027,,
642.0,3.3128,,
646.0,3.3475,,
650.0,2.2374,,
654.0,2.2201,,
658.0,2.3588,,
662.0,1.5610,,
666.0,1.6304,,
670.0,2.8271,,
674.0,1.2661,,
678.0,2.9312,,
682.0,2.0640,,
686.0,2.2374,,
690.0,1.3702,,
694.0,1.4396,,
698.0,1.5263,,
702.0,1.7344,,
706.0,1.5436,,
710.0,1.4049,,
714.0,1.8732,,
718.0,2.2548,,
722.0,2.4802,,
726.0,1.9599,,
730.0,1.1274,,
734.0,1.4569,,
738.0,1.1621,,
742.0,1.0407,,
746.0,1.0407,,
750.0,1.2141,,
754.0,1.0927,,
758.0,0.8499,,
762.0,0.9366,,
766.0,0.4856,,
770.0,1.1100,,
774.0,2.7231,,
778.0,0.4856,,
782.0,0.6417,,
786.0,1.6824,,
790.0,1.3702,,
794.0,1.5263,,
798.0,1.2661,,
802.0,0.7111,,
806.0,1.2661,,
810.0,1.1794,,
814.0,1.0060,,
818.0,1.0407,,
822.0,1.0927,,
826.0,0.5203,,
830.0,1.0753,,
834.0,0.6417,,
838.0,1.1621,,
842.0,0.8152,,
846.0,1.0927,,
850.0,0.3816,,
854.0,0.6244,,
858.0,1.0233,,
862.0,1.6997,,
866.0,1.1621,,
870.0,0.9539,,
874.0,1.1968,,
878.0,0.7111,,
882.0,0.6938,,
886.0,0.3642,,
890.0,0.4683,,
894.0,0.6071,,
898.0,1.0233,,
902.0,1.0753,,
906.0,0.7978,,
910.0,1.2141,,
914.0,0.3816,,
918.0,0.4163,,
922.0,0.5550,,
926.0,0.3295,,
930.0,0.5550,,
934.0,0.3469,,
938.0,0.8846,,
942.0,0.4336,,
946.0,0.1214,,
950.0,0.1734,,
954.0,0.3122,,
958.0,0.8152,,
962.0,0.3469,,
966.0,0.4510,,
970.0,0.5030,,
974.0,0.8846,,
978.0,0.1041,,
982.0,0.3642,,
986.0,0.1041,,
990.0,0.3122,,
994.0,0.1734,,
998.0,0.1388,,
1002.0,0.6764,,
1006.0,0.1908,,
1010.0,0.0000,,
1014.0,0.4163,,
1018.0,0.3642,,
1022.0,0.3122,,
1026.0,0.0867,,
1030.0,0.1908,,
1034.0,0.3816,,
1038.0,0.2081,,
1042.0,0.4510,,
1046.0,0.4683,,
1050.0,0.7978,,
1054.0,0.1734,,
1058.0,0.1734,,
1062.0,0.3295,,
1066.0,0.0867,,
1070.0,0.1041,,
1074.0,0.2255,,
1078.0,0.1041,,
1082.0,0.0000,,
1086.0,0.3295,,
1090.0,0.1041,,
1094.0,0.3816,,
1098.0,0.2428,,
1102.0,0.0000,,
1106.0,0.0000,,
1110.0,0.1908,,
1114.0,0.2775,,
1118.0,0.3469,,
1122.0,0.0000,,
1126.0,0.4163,,
1130.0,0.2775,,
1134.0,0.1908,,
1138.0,0.0000,,
1142.0,0.3989,,
1146.0,0.2602,,
1150.0,0.1908,,
1154.0,0.1041,,
1158.0,0.1041,,
1162.0,0.2081,,
1166.0,0.3989,,
1170.0,0.1908,,
1174.0,0.2775,,
1178.0,0.0000,,
1182.0,0.0000,,
1186.0,0.1041,,
1190.0,0.1734,,
1194.0,0.1734,,
1198.0,0.3295,,
1202.0,0.3469,,
1206.0,0.2428,,
1210.0,0.1214,,
1214.0,0.1561,,
1218.0,0.1908,,
1222.0,0.2775,,
1226.0,0.1041,,
1230.0,0.0000,,
1234.0,0.0000,,
1238.0,0.1734,,
1242.0,0.0000,,
1246.0,0.1041,,
1250.0,0.0000,,
1254.0,0.0000,,
1258.0,0.2081,,
1262.0,0.0000,,
1266.0,0.2775,,
1270.0,0.0867,,
1274.0,0.2775,,
1278.0,0.0867,,
1282.0,0.1561,,
1286.0,0.0000,,
1290.0,0.0000,,
1294.0,0.0000,,
1298.0,0.1388,,
1302.0,0.1214,,
1306.0,0.0000,,
1310.0,0.1908,,
1314.0,0.0867,,
1318.0,0.0000,,
1322.0,0.0000,,
1326.0,0.0000,,
1330.0,0.0000,,
1334.0,0.0000,,
1338.0,0.0000,,
1342.0,0.0000,,
1346.0,0.0000,,
1350.0,0.0000,,
1354.0,0.0000,,
1358.0,0.0000,,
1362.0,0.0000,,
1366.0,0.0000,,
1370.0,0.0867,,
1374.0,0.0867,,
1378.0,0.0867,,
1382.0,0.0000,,
1386.0,0.0867,,
1390.0,0.0867,,
1394.0,0.0000,,
1398.0,0.0000,,
1402.0,0.0867,,
1406.0,0.0000,,
1410.0,0.0000,,
1414.0,0.0867,,
1418.0,0.0000,,
1422.0,0.0000,,
1426.0,0.0000,,
1430.0,0.0867,,
1434.0,0.0000,,
1438.0,0.1041,,
1442.0,0.0867,,
1446.0,0.1214,,
1450.0,0.0000,,
1454.0,0.0000,,
1458.0,0.0867,,
1462.0,0.0000,,
1466.0,0.0000,,
1470.0,0.0000,,
1474.0,0.0000,,
1478.0,0.0000,,
1482.0,0.1734,,
1486.0,0.0000,,
1490.0,0.0000,,
1494.0,0.0000,,
1498.0,0.0000,,
1502.0,0.0867,,
1506.0,0.0000,,
1510.0,0.0867,,
1514.0,0.0000,,
1518.0,0.0000,,
1522.0,0.0000,,
1526.0,0.0000,,
1530.0,0.0000,,
1534.0,0.0000,,
1538.0,0.0000,,
1542.0,0.0000,,
1546.0,0.0000,,
1550.0,0.0000,,
1554.0,0.0000,,
1558.0,0.0000,,
1562.0,0.0000,,
1566.0,0.0000,,
1570.0,0.0000,,
1574.0,0.1214,,
1578.0,0.0000,,
1582.0,0.0000,,
1586.0,0.0000,,
1590.0,0.0000,,
1594.0,0.0000,,
1598.0,0.0000,,
1602.0,0.1041,,
1606.0,0.0000,,
1610.0,0.0000,,
1614.0,0.0867,,
1618.0,0.0000,,
1622.0,0.0000,,
1626.0,0.0000,,
1630.0,0.0867,,
1634.0,0.0000,,
1638.0,0.0000,,
1642.0,0.0000,,
1646.0,0.0000,,
1650.0,0.0000,,
1654.0,0.0000,,
1658.0,0.0000,,
1662.0,0.0000,,
1666.0,0.0000,,
1670.0,0.0000,,
1674.0,0.0000,,
1678.0,0.0000,,
1682.0,0.0000,,
1686.0,0.0000,,
1690.0,0.0000,,
1694.0,0.0000,,
1698.0,0.0000,,
1702.0,0.0000,,
1706.0,0.0000,,
1710.0,0.0000,,
1714.0,0.0000,,
1718.0,0.0000,,
1722.0,0.0000,,
1726.0,0.0000,,
1730.0,0.0000,,
1734.0,0.0000,,
1738.0,0.0000,,
1742.0,0.0000,,
1746.0,0.0000,,
1750.0,0.0000,,
1754.0,0.0000,,
1758.0,0.0000,,
1762.0,0.0000,,
1766.0,0.0000,,
1770.0,0.0000,,
1774.0,0.0000,,
1778.0,0.0000,,
1782.0,0.0000,,
1786.0,0.0000,,
1790.0,0.0000,,
1794.0,0.0000,,
1798.0,0.0000,,
1802.0,0.0000,,
1806.0,0.0000,,
1810.0,0.0000,,
1814.0,0.0000,,
1818.0,0.0000,,
1822.0,0.0000,,
1826.0,0.0000,,
1830.0,0.0000,,
1834.0,0.0000,,
1838.0,0.0000,,
1842.0,0.0000,,
1846.0,0.0000,,
1850.0,0.0000,,
1854.0,0.0000,,
1858.0,0.0000,,
1862.0,0.0000,,
1866.0,0.0000,,
1870.0,0.0000,,
1874.0,0.0000,,
1878.0,0.0000,,
1882.0,0.0000,,
1886.0,0.0000,,
1890.0,0.0000,,
1894.0,0.0000,,
1898.0,0.0000,,
1902.0,0.0000,,
1906.0,0.0000,,
1910.0,0.0000,,
1914.0,0.0000,,
1918.0,0.0000,,
1922.0,0.0000,,
1926.0,0.0000,,
1930.0,0.0000,,
1934.0,0.0000,,
1938.0,0.0000,,
1942.0,0.0000,,
1946.0,0.0000,,
1950.0,0.0000,,
1954.0,0.0000,,
1958.0,0.0000,,
1962.0,0.0000,,
1966.0,0.0000,,
1970.0,0.0000,,
1974.0,0.0000,,
1978.0,0.0000,,
1982.0,0.0000,,
1986.0,0.0000,,
1990.0,0.0000,,
1994.0,0.0000,,
1998.0,0.0000,,

[Percentile Undersize]
Percentile,Diffusion Coefficient (E4 nm²/s),
0,69,
1,136,
2,148,
3,156,
4,163,
5,168,
6,173,
7,178,
8,182,
9,186,
10,190,
11,194,
12,198,
13,201,
14,205,
15,208,
16,212,
17,215,
18,218,
19,221,
20,225,
21,228,
22,231,
23,234,
24,237,
25,240,
26,243,
27,246,
28,249,
29,252,
30,255,
31,258,
32,261,
33,264,
34,267,
35,270,
36,273,
37,276,
38,280,
39,283,
40,286,
41,290,
42,293,
43,296,
44,300,
45,304,
46,307,
47,311,
48,315,
49,319,
50,323,
51,327,
52,332,
53,336,
54,340,
55,345,
56,349,
57,354,
58,358,
59,363,
60,368,
61,373,
62,378,
63,383,
64,388,
65,393,
66,399,
67,405,
68,411,
69,417,
70,423,
71,430,
72,437,
73,444,
74,451,
75,459,
76,467,
77,476,
78,485,
79,495,
80,505,
81,515,
82,526,
83,538,
84,550,
85,562,
86,575,
87,589,
88,604,
89,620,
90,637,
91,656,
92,677,
93,703,
94,732,
95,768,
96,811,
97,863,
98,934,
99,1066,
100,1999,

